#Wave		#Intensity
3501.405273	2500.501465
3500.167969	2413.650635
3498.929688	2552.535400
3497.691406	2604.549561
3496.453125	2470.828125
3495.213867	2524.855957
3493.975586	2621.239258
3492.736328	2628.815430
3491.497070	2656.560059
3490.256836	2595.557129
3489.017578	2538.609863
3487.777344	2532.083496
3486.537109	2577.965576
3485.296875	2555.312256
3484.055664	2516.548340
3482.814453	2620.826660
3481.573242	2511.571777
3480.332031	2625.879883
3479.089844	2615.318359
3477.848633	2534.307129
3476.606445	2610.307129
3475.363281	2579.632080
3474.121094	2603.287598
3472.877930	2552.510742
3471.634766	2535.941162
3470.391602	2583.718994
3469.147461	2605.344971
3467.904297	2518.427246
3466.660156	2628.476807
3465.416016	2559.669434
3464.170898	2601.371094
3462.926758	2552.678711
3461.681641	2556.213135
3460.436523	2495.501465
3459.190430	2605.430176
3457.945313	2733.379150
3456.699219	2540.238525
3455.453125	2541.765381
3454.206055	2593.435059
3452.959961	2556.848877
3451.712891	2626.541016
3450.465820	2603.994385
3449.218750	2611.519775
3447.970703	2540.891602
3446.722656	2584.488281
3445.474609	2573.984863
3444.226563	2645.596680
3442.978516	2546.982178
3441.729492	2634.587646
3440.480469	2479.967773
3439.231445	2605.575684
3437.981445	2513.045166
3436.731445	2580.585693
3435.481445	2662.101318
3434.231445	2663.598145
3432.981445	2617.110352
3431.730469	2574.637939
3430.479492	2576.150146
3429.228516	2577.661377
3427.977539	2551.202637
3426.725586	2512.769287
3425.473633	2610.149902
3424.221680	2613.649902
3422.969727	2497.370361
3421.716797	2568.751221
3420.463867	2556.292480
3419.210938	2537.852539
3417.958008	2501.466309
3416.704102	2417.228027
3415.450195	2506.502441
3414.196289	2637.609619
3412.942383	2545.419922
3411.687500	2538.959717
3410.433594	2506.598877
3409.178711	2486.203125
3407.922852	2569.387207
3406.667969	2576.866699
3405.412109	2504.702393
3404.156250	2482.331299
3402.900391	2442.056152
3401.643555	2558.997314
3400.386719	2612.229736
3399.129883	2490.398193
3397.873047	2539.645508
3396.616211	2463.606201
3395.358398	2445.247803
3394.100586	2518.327148
3392.842773	2470.156250
3391.583984	2487.570313
3390.326172	2469.220703
3389.067383	2431.016602
3387.808594	2394.812744
3386.548828	2360.607666
3385.289063	2415.740479
3384.030273	2437.113770
3382.769531	2452.525879
3381.509766	2471.899902
3380.249023	2415.893799
3378.988281	2353.959229
3377.727539	2337.651367
3376.466797	2428.396973
3375.205078	2330.819336
3373.943359	2366.046631
3372.681641	2359.654297
3371.419922	2339.398438
3370.157227	2426.096436
3368.894531	2411.775635
3367.631836	2375.683105
3366.369141	2369.294434
3365.105469	2388.635010
3363.842773	2352.567139
3362.578125	2328.382080
3361.314453	2436.722656
3360.050781	2388.800781
3358.786133	2297.400635
3357.521484	2294.988037
3356.255859	2282.694580
3354.991211	2315.853271
3353.725586	2248.243164
3352.459961	2297.197266
3351.194336	2314.535156
3349.927734	2286.453125
3348.661133	2345.242432
3347.394531	2236.241699
3346.127930	2322.645264
3344.860352	2298.528320
3343.593750	2345.434814
3342.326172	2277.933350
3341.057617	2309.050537
3339.790039	2212.009277
3338.521484	2260.866943
3337.252930	2278.174316
3335.984375	2216.660400
3334.714844	2255.639160
3333.446289	2286.724609
3332.176758	2244.936035
3330.906250	2258.291748
3329.636719	2253.925537
3328.366211	2277.114746
3327.095703	2176.327148
3325.825195	2229.032471
3324.554688	2161.730957
3323.283203	2192.786133
3322.011719	2184.504395
3320.740234	2189.986816
3319.467773	2195.467041
3318.195313	2157.712158
3316.922852	2192.667480
3315.650391	2103.853516
3314.377930	2183.977783
3313.104492	2214.980713
3311.831055	2157.625000
3310.557617	2133.659912
3309.283203	2148.954346
3308.009766	2085.756836
3306.735352	2171.677979
3305.460938	2226.184082
3304.185547	2127.709229
3302.911133	2233.179688
3301.635742	2136.701172
3300.359375	2061.818359
3299.083984	2128.050049
3297.807617	2139.399902
3296.531250	2223.220459
3295.254883	2216.922119
3293.978516	2100.975830
3292.701172	2208.247559
3291.423828	2117.791748
3290.146484	2091.948486
3288.869141	2113.072266
3287.590820	2194.829346
3286.312500	2080.974609
3285.034180	2127.508789
3283.754883	2054.766357
3282.476563	2124.743652
3281.197266	2165.379639
3279.917969	2182.552734
3278.637695	2123.529785
3277.357422	2033.278198
3276.078125	2093.428467
3274.796875	2016.883789
3273.516602	2180.474365
3272.235352	2057.101074
3270.954102	2109.395264
3269.672852	2064.120850
3268.391602	2050.073486
3267.109375	2123.791016
3265.827148	2010.294922
3264.544922	2066.446533
3263.262695	2050.459717
3261.979492	2057.863770
3260.696289	2110.077148
3259.413086	2099.934814
3258.128906	2066.424805
3256.845703	2081.608643
3255.561523	2106.520996
3254.277344	2032.151978
3252.992188	2035.656616
3251.707031	1945.763184
3250.422852	2025.153076
3249.136719	2011.151489
3247.851563	2096.332275
3246.565430	2066.768066
3245.279297	2050.822510
3243.993164	2011.560303
3242.707031	2030.608032
3241.419922	2074.904785
3240.132813	2020.120850
3238.845703	1936.226929
3237.557617	2003.816162
3236.270508	2007.316162
3234.982422	2026.342407
3233.694336	1942.510864
3232.405273	2048.850830
3231.116211	1951.468140
3229.827148	1958.853271
3228.538086	1950.722778
3227.249023	1876.678955
3225.958984	1977.114502
3224.668945	2005.806519
3223.378906	1943.419800
3222.087891	1983.730469
3220.797852	1989.161987
3219.506836	2000.400879
3218.215820	1941.934814
3216.923828	1916.398804
3215.631836	1948.934082
3214.339844	1875.031006
3213.047852	1984.947388
3211.755859	1932.342529
3210.462891	1982.254639
3209.169922	1889.065796
3207.876953	1879.038818
3206.583008	1909.604248
3205.289063	1938.225464
3203.995117	1870.232788
3202.701172	1914.303955
3201.407227	1857.929443
3200.112305	1896.193115
3198.817383	1816.676514
3197.521484	1899.328125
3196.226563	1854.578369
3194.930664	1790.550903
3193.634766	1807.570190
3192.338867	1797.580566
3191.041992	1847.374023
3189.745117	1875.940430
3188.448242	1750.285645
3187.151367	1854.022461
3185.854492	1919.181885
3184.556641	1832.120972
3183.258789	1810.582520
3181.959961	1841.048462
3180.662109	1877.278809
3179.363281	1857.668823
3178.064453	1803.422119
3176.764648	1824.244141
3175.465820	1846.981934
3174.166016	1829.316040
3172.866211	1788.578369
3171.565430	1803.618408
3170.265625	1818.652588
3168.964844	1866.356567
3167.664063	1781.442871
3166.362305	1815.685913
3165.061523	1784.602173
3163.759766	1747.768188
3162.458008	1768.556030
3161.155273	1837.333008
3159.853516	1792.831909
3158.550781	1731.075317
3157.248047	1805.576050
3155.944336	1812.903564
3154.640625	1705.145142
3153.337891	1731.665771
3152.033203	1762.010620
3150.729492	1765.506592
3149.424805	1726.836426
3148.120117	1755.248413
3146.815430	1756.827515
3145.509766	1764.152344
3144.205078	1782.964966
3142.899414	1746.242920
3141.592773	1860.770142
3140.287109	1760.884888
3138.980469	1714.619629
3137.673828	1666.458740
3136.367188	1673.790527
3135.059570	1738.495483
3133.752930	1673.148071
3132.445313	1672.826904
3131.136719	1636.188477
3129.829102	1704.672729
3128.520508	1645.113647
3127.211914	1656.259766
3125.902344	1636.842041
3124.593750	1649.894897
3123.284180	1624.758057
3121.974609	1597.721802
3120.664063	1641.310425
3119.354492	1614.281250
3118.043945	1650.218750
3116.733398	1707.123657
3115.421875	1580.931396
3114.111328	1700.747681
3112.799805	1652.763306
3111.488281	1610.515137
3110.175781	1695.956177
3108.864258	1607.990845
3107.551758	1611.491455
3106.238281	1654.984497
3104.925781	1648.954102
3103.612305	1620.080933
3102.298828	1682.580688
3100.985352	1600.427979
3099.671875	1640.075562
3098.357422	1548.451050
3097.042969	1589.995239
3095.727539	1603.000244
3094.413086	1655.924805
3093.097656	1590.978760
3091.782227	1571.668213
3090.466797	1561.865356
3089.150391	1591.960327
3087.833984	1587.855347
3086.517578	1578.054810
3085.201172	1509.400879
3083.883789	1598.328247
3082.566406	1580.939697
3081.249023	1586.327881
3079.931641	1555.668091
3078.613281	1589.510742
3077.294922	1532.312012
3075.976563	1537.705200
3074.658203	1522.243530
3073.338867	1548.484985
3072.019531	1546.291870
3070.700195	1530.837280
3069.379883	1540.013550
3068.060547	1507.521118
3066.740234	1543.207275
3065.418945	1525.871826
3064.098633	1487.722290
3062.777344	1561.239624
3061.456055	1453.092163
3060.134766	1547.396240
3058.812500	1516.837036
3057.491211	1533.563232
3056.167969	1487.893555
3054.845703	1463.033813
3053.523438	1606.381226
3052.200195	1543.718140
3050.876953	1552.866211
3049.552734	1543.122925
3048.229492	1499.392090
3046.905273	1461.342163
3045.580078	1536.567383
3044.255859	1470.215210
3042.930664	1513.331421
3041.605469	1454.555420
3040.280273	1497.657837
3038.955078	1472.852783
3037.628906	1529.133423
3036.302734	1474.169678
3034.976563	1441.844238
3033.649414	1501.866821
3032.322266	1462.012207
3030.995117	1501.287231
3029.667969	1450.148071
3028.339844	1538.366699
3027.012695	1477.827026
3025.684570	1473.777344
3024.355469	1488.547607
3023.027344	1418.645020
3021.698242	1442.825806
3020.369141	1536.585449
3019.039063	1446.029419
3017.708984	1487.110962
3016.378906	1490.583130
3015.048828	1426.398560
3013.718750	1469.338867
3012.387695	1472.812256
3011.056641	1480.040527
3009.725586	1489.143921
3008.393555	1402.491211
3007.062500	1398.465942
3005.730469	1499.541504
3004.397461	1491.745972
3003.065430	1453.936768
3001.732422	1446.152954
3000.399414	1475.878540
2999.065430	1363.095703
2997.732422	1405.947876
2996.398438	1428.166870
2995.064453	1441.007813
2993.729492	1453.843750
2992.395508	1378.636719
2991.060547	1486.991699
2989.724609	1417.424438
2988.389648	1400.301636
2987.053711	1398.159058
2985.717773	1478.356079
2984.381836	1330.263062
2983.044922	1485.266602
2981.708984	1382.115356
2980.372070	1432.334961
2979.034180	1340.450928
2977.697266	1448.603027
2976.359375	1375.439331
2975.021484	1418.147339
2973.682617	1404.796265
2972.344727	1454.952637
2971.005859	1376.242065
2969.666016	1433.852417
2968.327148	1442.907959
2966.987305	1440.762207
2965.647461	1401.299072
2964.307617	1434.607666
2962.967773	1404.486694
2961.626953	1439.646362
2960.286133	1325.635132
2958.944336	1373.845093
2957.603516	1416.444946
2956.261719	1390.083130
2954.919922	1393.539917
2953.577148	1447.286987
2952.235352	1391.137573
2950.892578	1392.729858
2949.549805	1317.996826
2948.206055	1327.047485
2946.863281	1445.885010
2945.519531	1395.371338
2944.174805	1398.821045
2942.831055	1422.726929
2941.486328	1450.342285
2940.141602	1437.047607
2938.796875	1440.486328
2937.451172	1408.615356
2936.105469	1449.217407
2934.759766	1406.211304
2933.414063	1417.082031
2932.067383	1316.535034
2930.720703	1334.844971
2929.374023	1345.723022
2928.027344	1319.480469
2926.679688	1410.141479
2925.332031	1356.070190
2923.984375	1378.063843
2922.635742	1381.505127
2921.287109	1362.696777
2919.938477	1314.237427
2918.589844	1362.167847
2917.240234	1413.785400
2915.890625	1389.427490
2914.541016	1400.270874
2913.191406	1355.554565
2911.840820	1260.865356
2910.490234	1299.494141
2909.139648	1367.720337
2907.789063	1334.147217
2906.437500	1306.137329
2905.085938	1366.923462
2903.734375	1344.465820
2902.381836	1312.772095
2901.029297	1364.278198
2899.676758	1349.227051
2898.324219	1395.162231
2896.970703	1348.702637
2895.617188	1361.370728
2894.263672	1372.187012
2892.910156	1357.148682
2891.555664	1404.883423
2890.201172	1297.557251
2888.846680	1284.387207
2887.491211	1330.263062
2886.135742	1368.742432
2884.780273	1333.434326
2883.424805	1366.366089
2882.068359	1336.602905
2880.712891	1404.542480
2879.355469	1302.911255
2877.999023	1335.822998
2876.641602	1350.300415
2875.284180	1342.670410
2873.926758	1314.787598
2872.569336	1233.524170
2871.210938	1336.364624
2869.852539	1321.381592
2868.494141	1409.444702
2867.134766	1403.651367
2865.775391	1327.967285
2864.416016	1314.836182
2863.056641	1321.934448
2861.696289	1365.794189
2860.335938	1337.960449
2858.975586	1328.512329
2857.614258	1300.696533
2856.253906	1223.298218
2854.892578	1324.063477
2853.530273	1338.494019
2852.168945	1354.754639
2850.806641	1264.558472
2849.444336	1304.682007
2848.082031	1420.010010
2846.718750	1313.344971
2845.355469	1281.912354
2843.992188	1246.824707
2842.627930	1281.412720
2841.264648	1270.165771
2839.900391	1308.400635
2838.535156	1363.109619
2837.170898	1276.750244
2835.805664	1325.949707
2834.440430	1270.759155
2833.075195	1259.527100
2831.708984	1264.772583
2830.342773	1275.505859
2828.976563	1406.990967
2827.609375	1309.764648
2826.243164	1269.272827
2824.875977	1294.625122
2823.507813	1266.949463
2822.140625	1308.742798
2820.772461	1288.385010
2819.404297	1247.936523
2818.035156	1297.016113
2816.666992	1300.415771
2815.297852	1227.119141
2813.928711	1252.439697
2812.558594	1285.051636
2811.189453	1310.350708
2809.819336	1269.952759
2808.448242	1275.177612
2807.078125	1296.815796
2805.707031	1272.856079
2804.335938	1296.309326
2802.963867	1299.701904
2801.592773	1273.932861
2800.220703	1268.217651
2798.848633	1308.049316
2797.475586	1327.829590
2796.102539	1289.327393
2794.729492	1265.406006
2793.356445	1274.260620
2791.982422	1274.011597
2790.609375	1310.155884
2789.234375	1273.513672
2787.860352	1285.997437
2786.485352	1262.104248
2785.110352	1225.492798
2783.735352	1205.256470
2782.360352	1270.451782
2780.984375	1219.322632
2779.608398	1286.306396
2778.231445	1207.947021
2776.855469	1343.918701
2775.478516	1247.421021
2774.101563	1261.700195
2772.723633	1230.597656
2771.346680	1244.874390
2769.968750	1279.103149
2768.589844	1257.085205
2767.211914	1274.975342
2765.833008	1305.551392
2764.454102	1288.979736
2763.075195	1277.852051
2761.695313	1261.292114
2760.315430	1264.668945
2758.935547	1188.338745
2757.554688	1280.474121
2756.174805	1283.844971
2754.793945	1227.470337
2753.412109	1252.570923
2752.031250	1264.993652
2750.649414	1221.321167
2749.267578	1288.015381
2747.884766	1235.312134
2746.502930	1200.712402
2745.120117	1234.828125
2743.736328	1247.239380
2742.353516	1212.657471
2740.969727	1257.591919
2739.585938	1235.667114
2738.202148	1215.557007
2736.817383	1258.658569
2735.432617	1204.247803
2734.047852	1223.868042
2732.662109	1294.013794
2731.277344	1252.258789
2729.891602	1205.107788
2728.504883	1300.467651
2727.119141	1199.225220
2725.732422	1195.384155
2724.345703	1251.031494
2722.958008	1308.459229
2721.571289	1196.482788
2720.183594	1207.057617
2718.794922	1242.845337
2717.407227	1213.787476
2716.018555	1181.140015
2714.629883	1233.113037
2713.241211	1216.672852
2711.851563	1185.843262
2710.461914	1137.034668
2709.072266	1226.749146
2707.681641	1197.734009
2706.291016	1240.651978
2704.900391	1290.743774
2703.509766	1186.244629
2702.119141	1153.666016
2700.727539	1131.879883
2699.334961	1212.490234
2697.943359	1196.088745
2696.550781	1201.240601
2695.158203	1179.461914
2693.765625	1161.281616
2692.372070	1209.505493
2690.979492	1200.296997
2689.584961	1273.607544
2688.191406	1171.130005
2686.796875	1267.727783
2685.402344	1204.732178
2684.007813	1211.665039
2682.613281	1249.059937
2681.217773	1234.480835
2679.822266	1180.497803
2678.425781	1208.921631
2677.030273	1176.452393
2675.633789	1174.430786
2674.237305	1183.149536
2672.839844	1216.919067
2671.442383	1145.110352
2670.044922	1101.951904
2668.647461	1237.663574
2667.249023	1121.188477
2665.850586	1263.994141
2664.452148	1158.284424
2663.053711	1242.051392
2661.654297	1193.564087
2660.254883	1186.183594
2658.855469	1200.238647
2657.455078	1205.359619
2656.054688	1219.405273
2654.654297	1194.175049
2653.252930	1183.232056
2651.852539	1240.097168
2650.451172	1182.766235
2649.048828	1184.317017
2647.647461	1207.266113
2646.245117	1198.113892
2644.842773	1237.094238
2643.439453	1169.126709
2642.037109	1136.823120
2640.633789	1181.136719
2639.229492	1168.436035
2637.826172	1121.905029
2636.421875	1223.169678
2635.017578	1194.447021
2633.613281	1155.057251
2632.208008	1142.373779
2630.802734	1145.706787
2629.397461	1147.259644
2627.991211	1134.585083
2626.584961	1155.697388
2625.178711	1230.130737
2623.772461	1112.586792
2622.365234	1158.567993
2620.958008	1252.499023
2619.550781	1104.823730
2618.142578	1184.521118
2616.735352	1198.491821
2615.326172	1157.426025
2613.917969	1176.720947
2612.508789	1204.880737
2611.099609	1209.965454
2609.690430	1188.441284
2608.281250	1122.589355
2606.871094	1179.106934
2605.460938	1148.737549
2604.049805	1175.096802
2602.639648	1119.931519
2601.228516	1075.418091
2599.817383	1162.001709
2598.405273	1105.100464
2596.993164	1149.148438
2595.581055	1083.420654
2594.168945	1173.473999
2592.755859	1153.776611
2591.342773	1171.241333
2589.929688	1140.938721
2588.516602	1101.805298
2587.102539	1101.587646
2585.688477	1219.816040
2584.273438	1164.782471
2582.859375	1100.934937
2581.444336	1130.753052
2580.028320	1135.828979
2578.613281	1167.394409
2577.197266	1124.785645
2575.781250	1184.587158
2574.365234	1136.696411
2572.948242	1131.177612
2571.531250	1175.062988
2570.114258	1109.562256
2568.696289	1130.506836
2567.278320	1105.596924
2565.860352	1177.659912
2564.442383	1113.972778
2563.023438	1145.473267
2561.604492	1152.294434
2560.185547	1164.397461
2558.766602	1194.107910
2557.346680	1170.980347
2555.926758	1132.017212
2554.505859	1110.671021
2553.084961	1078.774414
2551.665039	1126.066895
2550.243164	1187.413574
2548.822266	1187.178589
2547.400391	1150.016479
2545.978516	1112.869019
2544.555664	1116.164185
2543.133789	1180.966675
2541.710938	1133.292725
2540.287109	1096.177734
2538.864258	1206.610596
2537.440430	1197.591553
2536.016602	1125.372681
2534.591797	1160.255859
2533.167969	1123.171997
2531.743164	1075.575073
2530.317383	1120.972778
2528.892578	1154.075073
2527.466797	1138.064331
2526.041016	1116.800171
2524.614258	1081.521484
2523.187500	1163.675781
2521.760742	1180.966797
2520.333984	1121.170532
2518.906250	1161.232422
2517.479492	1125.979492
2516.050781	1134.510254
2514.623047	1078.271240
2513.194336	1116.559448
2511.765625	1100.590332
2510.336914	1140.608276
2508.907227	1087.910522
2507.477539	1117.422729
2506.047852	1132.936279
2504.617188	1078.523193
2503.186523	1101.028931
2501.755859	1167.208496
2500.325195	1139.025391
2498.893555	1119.586548
2497.461914	1187.469116
2496.030273	1154.060791
2494.597656	1085.753906
2493.166016	1082.047974
2491.732422	1109.751465
2490.299805	1139.188477
2488.866211	1105.822510
2487.432617	1084.676636
2485.999023	1103.639893
2484.564453	1105.163818
2483.130859	1155.485962
2481.695313	1083.815308
2480.260742	1121.926758
2478.825195	1132.154541
2477.389648	1081.428223
2475.954102	1112.552856
2474.517578	1093.183716
2473.081055	1117.332031
2471.644531	1071.868774
2470.207031	1153.421631
2468.770508	1114.926636
2467.332031	1052.100708
2465.894531	1100.574219
2464.456055	1138.598389
2463.017578	1117.516357
2461.579102	1160.734863
2460.140625	1085.801025
2458.701172	1101.217529
2457.261719	1114.891235
2455.821289	1116.405762
2454.380859	1079.729858
2452.940430	1119.432861
2451.500000	1105.328491
2450.058594	1105.108643
2448.617188	1156.924316
2447.175781	1068.251221
2445.734375	1054.168091
2444.291992	1064.359131
2442.849609	1081.478760
2441.407227	1089.927490
2439.963867	1105.302612
2438.520508	1072.172607
2437.077148	1110.057861
2435.632813	1028.460449
2434.188477	1147.699463
2432.744141	1076.511230
2431.299805	1081.488037
2429.854492	1096.843018
2428.409180	1127.758911
2426.963867	1096.406128
2425.517578	1092.729736
2424.071289	1101.155273
2422.625000	1102.664307
2421.177734	1071.341187
2419.730469	1133.322144
2418.283203	1124.459961
2416.835938	1058.612305
2415.387695	1079.120483
2413.939453	1073.726563
2412.491211	1066.609009
2411.041992	1047.415161
2409.593750	1102.413330
2408.143555	1128.066650
2406.693359	1081.279419
2405.244141	1077.615479
2403.794922	1106.705933
2402.343750	1040.992310
2400.892578	1075.247803
2399.441406	1066.419189
2397.990234	1054.149292
2396.539063	1126.268066
2395.085938	1081.277222
2393.634766	1046.632690
2392.181641	1106.662109
2390.728516	1001.475647
2389.275391	1137.187744
2387.822266	1052.677856
2386.369141	1059.346558
2384.914063	1076.328857
2383.460938	1110.494629
2382.005859	1081.055298
2380.550781	1072.247681
2379.095703	1060.007568
2377.640625	1076.972534
2376.183594	1076.757446
2374.728516	1067.957520
2373.271484	1057.444458
2371.814453	1069.247314
2370.357422	1075.897461
2368.900391	1077.398193
2367.443359	1063.460815
2365.986328	1042.669312
2364.527344	1056.177612
2363.068359	1047.395386
2361.611328	1060.897217
2360.152344	1098.383179
2358.693359	1039.914673
2357.232422	1063.686890
2355.773438	1073.749390
2354.312500	1034.154663
2352.851563	1013.405884
2351.392578	1047.433105
2349.931641	989.044556
2348.468750	1026.484497
2347.007813	1010.885010
2345.546875	1072.247314
2344.083984	1109.647949
2342.621094	998.312500
2341.158203	1051.094727
2339.695313	1052.593262
2338.232422	1060.924683
2336.769531	985.557251
2335.304688	1077.577393
2333.839844	1068.824829
2332.375000	1080.560181
2330.910156	1117.891479
2329.445313	1105.723145
2327.980469	1076.499390
2326.515625	1042.170288
2325.048828	1035.140259
2323.582031	1062.212891
2322.115234	1062.000244
2320.648438	1029.405640
2319.181641	1071.798706
2317.714844	1073.287720
2316.246094	994.721313
2314.779297	986.007324
2313.310547	997.728027
2311.841797	1060.511963
2310.373047	1044.982178
2308.904297	992.023621
2307.433594	1039.459595
2305.964844	983.121521
2304.494141	964.218323
2303.023438	1072.839111
2301.552734	1008.028687
2300.082031	1031.620117
2298.611328	1031.413330
2297.138672	1029.507568
2295.667969	932.485718
2294.195313	1020.603882
2292.722656	1044.168823
2291.250000	1013.404541
2289.777344	1042.052856
2288.302734	1016.391663
2286.830078	1039.938354
2285.355469	1017.679993
2283.880859	969.993591
2282.408203	1085.089722
2280.931641	988.250549
2279.457031	1025.337158
2277.982422	1020.048096
2276.505859	958.856079
2275.029297	1021.332397
2273.554688	1022.820740
2272.078125	1020.922363
2270.599609	958.086304
2269.123047	991.741699
2267.646484	989.850525
2266.167969	915.216370
2264.689453	986.070190
2263.210938	967.270813
2261.732422	1022.869324
2260.253906	960.120789
2258.775391	1022.458374
2257.294922	1050.977417
2255.814453	971.367493
2254.333984	1035.354126
2252.853516	1053.721313
2251.373047	1063.639404
2249.892578	992.530579
2248.412109	985.580505
2246.929688	958.385559
2245.447266	985.184265
2243.964844	971.493225
2242.482422	1032.004028
2241.000000	969.416565
2239.517578	1033.274536
2238.033203	972.397217
2236.548828	990.735840
2235.066406	948.421875
2233.582031	1002.127014
2232.095703	966.563293
2230.611328	956.267395
2229.126953	1031.820435
2227.640625	1024.881226
2226.154297	1022.992371
2224.667969	1032.879761
2223.181641	1007.443726
2221.695313	924.845581
2220.208984	1008.719360
2218.720703	1074.069824
2217.234375	991.507996
2215.746094	922.420837
2214.257813	987.749084
2212.769531	942.203430
2211.279297	978.955383
2209.791016	980.437073
2208.300781	939.955750
2206.812500	1060.593506
2205.322266	961.388672
2203.832031	1016.551758
2202.341797	1053.244019
2200.849609	982.606079
2199.359375	982.408081
2197.867188	1027.465454
2196.375000	958.551025
2194.882813	970.085999
2193.390625	1028.519409
2191.898438	1004.865173
2190.404297	969.499390
2188.912109	997.763611
2187.417969	977.477234
2185.923828	958.872437
2184.429688	948.640564
2182.935547	1048.814209
2181.439453	980.033752
2179.945313	953.082825
2178.449219	976.294922
2176.953125	976.097900
2175.458984	1007.651184
2173.960938	984.057678
2172.464844	978.847900
2170.968750	910.178223
2169.470703	935.040283
2167.972656	971.577820
2166.474609	978.057861
2164.976563	972.854309
2163.478516	937.622192
2161.980469	1009.158142
2160.480469	1020.628235
2158.982422	955.395203
2157.482422	985.208618
2155.982422	918.342285
2154.482422	943.152039
2152.980469	947.959534
2151.480469	934.442627
2149.978516	967.560547
2148.476563	999.000061
2146.974609	915.565002
2145.472656	980.288757
2143.970703	946.810791
2142.468750	981.556213
2140.964844	913.161743
2139.462891	979.496460
2137.958984	987.611633
2136.455078	990.736572
2134.949219	967.268616
2133.445313	943.810120
2131.941406	1000.103516
2130.435547	973.325806
2128.929688	961.504517
2127.423828	951.348267
2125.917969	977.715149
2124.412109	980.836609
2122.906250	925.881714
2121.398438	899.151184
2119.890625	938.776001
2118.382813	948.535706
2116.875000	1003.055847
2115.367188	958.097412
2113.859375	964.532593
2112.349609	987.534485
2110.841797	977.394897
2109.332031	965.603149
2107.822266	991.902588
2106.312500	968.523376
2104.800781	941.843079
2103.291016	964.821289
2101.779297	981.171753
2100.269531	913.148560
2098.757813	992.351746
2097.246094	945.850342
2095.732422	937.392456
2094.220703	1024.807007
2092.707031	892.392944
2091.195313	978.128845
2089.681641	939.936707
2088.167969	979.383972
2086.654297	903.228394
2085.138672	944.317932
2083.625000	957.331116
2082.109375	947.235596
2080.593750	927.244690
2079.078125	922.107971
2077.562500	890.585571
2076.046875	967.903137
2074.531250	944.626953
2073.013672	921.360107
2071.496094	924.468994
2069.978516	958.880249
2068.460938	938.919006
2066.943359	942.022278
2065.425781	981.348511
2063.906250	907.069275
2062.386719	928.281738
2060.869141	918.220032
2059.349609	987.132935
2057.828125	988.577454
2056.308594	966.997559
2054.789063	1030.925781
2053.267578	940.302734
2051.746094	953.260254
2050.224609	903.770081
2048.703125	979.159241
2047.181641	934.611511
2045.658203	952.486023
2044.136719	944.083130
2042.613281	976.722351
2041.089844	927.287415
2039.566406	971.402832
2038.042969	948.237732
2036.517578	949.685242
2034.994141	898.655884
2033.468750	913.229187
2031.943359	960.580811
2030.417969	921.052368
2028.892578	1024.093750
2027.367188	959.995056
2025.839844	954.886230
2024.314453	951.416992
2022.787109	965.958435
2021.259766	874.096436
2019.732422	913.195923
2018.203125	950.643188
2016.675781	945.542114
2015.146484	978.060852
2013.619141	927.170044
2012.089844	984.202454
2010.560547	923.523621
2009.029297	957.654358
2007.500000	947.656128
2005.968750	909.891418
2004.439453	1048.530273
2002.908203	951.976196
2001.376953	946.884705
1999.843750	923.840759
1998.312500	990.560364
1996.781250	941.411743
1995.248047	903.701721
1993.714844	1020.942322
1992.181641	962.033997
1990.648438	890.107788
1989.115234	943.713196
1987.580078	1034.776855
1986.044922	979.171936
1984.511719	892.640381
1982.976563	925.029968
1981.441406	934.610901
1979.904297	958.839111
1978.369141	888.657776
1976.832031	935.666809
1975.294922	966.387451
1973.759766	925.525818
1972.220703	951.357178
1970.683594	928.400269
1969.146484	978.604187
1967.607422	971.903625
1966.068359	961.955811
1964.531250	1038.115601
1962.992188	990.800171
1961.451172	915.897217
1959.912109	988.772339
1958.371094	922.016602
1956.832031	968.893616
1955.291016	945.979431
1953.750000	908.474060
1952.208984	913.154480
1950.666016	963.238098
1949.125000	907.917847
1947.582031	936.909607
1946.039063	952.924561
1944.496094	915.463318
1942.953125	949.295532
1941.410156	882.696960
1939.865234	924.618408
1938.322266	926.048523
1936.777344	921.003418
1935.232422	933.761719
1933.687500	941.660828
1932.142578	939.850830
1930.595703	976.856995
1929.050781	963.721497
1927.503906	863.292175
1925.957031	924.535950
1924.410156	906.571045
1922.863281	925.773682
1921.314453	959.506409
1919.767578	914.090210
1918.218750	946.196716
1916.669922	941.160278
1915.121094	966.791931
1913.572266	903.660706
1912.021484	947.036377
1910.472656	858.126587
1908.921875	922.458618
1907.371094	896.472168
1905.820313	970.442139
1904.269531	929.951111
1902.718750	912.035767
1901.166016	905.404968
1899.615234	897.166077
1898.062500	903.424011
1896.509766	954.760742
1894.957031	899.834778
1893.402344	902.869324
1891.849609	918.775146
1890.294922	879.977417
1888.740234	918.398926
1887.185547	935.899719
1885.630859	950.177734
1884.076172	874.434570
1882.519531	919.253906
1880.964844	960.841309
1879.408203	909.238770
1877.851563	941.174438
1876.294922	912.077759
1874.736328	910.285400
1873.179688	951.831787
1871.621094	885.840576
1870.064453	959.463989
1868.505859	907.935242
1866.947266	915.768127
1865.386719	921.994263
1863.828125	875.314209
1862.267578	953.672485
1860.708984	887.775146
1859.148438	950.077087
1857.587891	937.067627
1856.025391	943.281433
1854.464844	912.665710
1852.902344	904.474304
1851.341797	933.097961
1849.779297	915.304504
1848.216797	852.722412
1846.652344	897.334106
1845.089844	884.356384
1843.525391	936.937622
1841.962891	903.175903
1840.398438	898.195923
1838.833984	888.424194
1837.267578	944.156311
1835.703125	932.781860
1834.136719	903.846130
1832.572266	890.887939
1831.005859	906.667419
1829.439453	912.864868
1827.873047	930.228882
1826.304688	899.727783
1824.738281	923.466980
1823.169922	894.574341
1821.601563	884.824829
1820.033203	959.558777
1818.464844	970.516968
1816.896484	882.686218
1815.326172	898.434448
1813.755859	895.064514
1812.185547	898.065125
1810.615234	947.232117
1809.044922	926.345825
1807.474609	946.842651
1805.902344	860.733704
1804.332031	889.188904
1802.759766	939.897217
1801.187500	839.532410
1799.615234	929.972473
1798.041016	856.670166
1796.468750	942.302185
1794.894531	878.559692
1793.320313	900.616394
1791.746094	890.902710
1790.171875	881.192932
1788.597656	868.312317
1787.021484	898.288147
1785.445313	944.119141
1783.871094	889.986206
1782.294922	867.597534
1780.716797	854.732727
1779.140625	941.756409
1777.564453	884.498047
1775.986328	860.544006
1774.408203	861.951233
1772.830078	907.713806
1771.251953	934.451721
1769.673828	915.257324
1768.093750	831.161072
1766.513672	940.205627
1764.935547	898.866577
1763.355469	884.441711
1761.773438	953.861267
1760.193359	955.246155
1758.613281	931.331177
1757.031250	867.903931
1755.449219	953.075012
1753.867188	943.397156
1752.285156	873.686829
1750.701172	928.791931
1749.119141	873.326538
1747.535156	975.776672
1745.951172	858.758911
1744.367188	874.364563
1742.783203	937.302185
1741.199219	933.953552
1739.613281	854.895935
1738.029297	875.220154
1736.443359	941.258789
1734.857422	901.656433
1733.271484	877.830383
1731.683594	880.800537
1730.097656	879.043396
1728.509766	864.686768
1726.921875	907.025024
1725.333984	938.325195
1723.746094	868.873413
1722.158203	878.136292
1720.568359	907.849487
1718.978516	904.515808
1717.390625	849.282837
1715.800781	921.438782
1714.208984	927.536804
1712.619141	861.330811
1711.027344	895.724670
1709.437500	870.401611
1707.845703	868.650940
1706.253906	912.444641
1704.662109	901.265015
1703.068359	954.452698
1701.476563	907.170471
1699.882813	897.567871
1698.289063	894.244568
1696.695313	887.785583
1695.101563	859.374329
1693.505859	896.825684
1691.912109	879.397095
1690.316406	883.916931
1688.720703	868.065002
1687.125000	914.882874
1685.529297	913.127319
1683.933594	872.224182
1682.335938	923.708740
1680.738281	939.170410
1679.140625	928.021362
1677.542969	893.407288
1675.945313	893.222351
1674.347656	974.364807
1672.748047	853.760925
1671.148438	919.244507
1669.548828	975.322754
1667.949219	893.860779
1666.349609	887.426147
1664.748047	885.680298
1663.148438	916.731323
1661.546875	933.716858
1659.945313	878.885742
1658.343750	916.161743
1656.742188	884.763306
1655.138672	918.902344
1653.537109	934.309753
1651.933594	935.675537
1650.330078	877.793579
1648.726563	930.611267
1647.121094	905.482544
1645.517578	913.085632
1643.912109	878.623779
1642.306641	900.246887
1640.701172	938.990173
1639.095703	878.077332
1637.490234	930.817993
1635.884766	857.482178
1634.277344	917.984619
1632.669922	922.460938
1631.062500	937.822205
1629.455078	901.864014
1627.845703	898.567688
1626.238281	937.238525
1624.628906	915.288452
1623.019531	958.600647
1621.410156	927.335144
1619.800781	877.446533
1618.191406	810.499146
1616.580078	931.414795
1614.968750	842.755371
1613.359375	859.649231
1611.746094	890.498535
1610.134766	876.354004
1608.523438	882.374939
1606.910156	902.347168
1605.298828	851.006348
1603.685547	884.924744
1602.070313	850.652771
1600.457031	918.638062
1598.843750	876.629150
1597.228516	950.774658
1595.613281	931.998962
1593.998047	900.848267
1592.382813	936.254150
1590.767578	926.776306
1589.152344	908.020996
1587.535156	862.981873
1585.917969	889.088562
1584.300781	924.459778
1582.683594	916.539551
1581.066406	902.441406
1579.447266	923.883118
1577.828125	925.235535
1576.210938	955.929321
1574.591797	932.570557
1572.970703	858.280334
1571.351563	876.621948
1569.730469	927.359436
1568.111328	944.136169
1566.490234	883.786621
1564.869141	889.770935
1563.248047	897.294434
1561.625000	873.986267
1560.003906	921.578430
1558.380859	915.223450
1556.757813	905.790100
1555.134766	924.083130
1553.511719	894.634094
1551.886719	894.447754
1550.263672	938.897522
1548.638672	892.536255
1547.013672	915.428345
1545.388672	927.543335
1543.761719	901.205872
1542.136719	893.330200
1540.509766	868.547974
1538.882813	926.770325
1537.255859	925.040527
1535.628906	878.758972
1534.001953	873.967834
1532.373047	922.926453
1530.746094	867.462097
1529.117188	937.891724
1527.488281	847.149353
1525.859375	923.691223
1524.228516	859.068420
1522.599609	915.637207
1520.968750	915.446228
1519.337891	846.266113
1517.707031	893.605469
1516.076172	887.289185
1514.443359	808.965332
1512.810547	854.750854
1511.179688	882.139282
1509.546875	912.578552
1507.914063	875.647644
1506.279297	866.281616
1504.646484	873.751770
1503.011719	891.928101
1501.376953	905.507996
1499.742188	911.435913
1498.107422	899.014038
1496.472656	898.826294
1494.835938	892.525330
1493.201172	880.115051
1491.564453	861.599243
1489.927734	878.219971
1488.289063	853.604126
1486.652344	859.532532
1485.013672	865.458435
1483.376953	886.642395
1481.738281	907.817505
1480.099609	878.644653
1478.458984	904.387756
1476.820313	878.277283
1475.179688	910.107483
1473.539063	871.813416
1471.898438	888.393188
1470.257813	827.266907
1468.617188	884.975220
1466.974609	871.084229
1465.333984	910.488464
1463.691406	898.120056
1462.048828	907.063660
1460.406250	902.309021
1458.761719	879.300964
1457.119141	869.991150
1455.474609	892.618774
1453.830078	866.586365
1452.185547	796.484558
1450.539063	867.743225
1448.894531	864.522827
1447.248047	873.456116
1445.603516	856.567078
1443.957031	865.498230
1442.308594	853.172119
1440.662109	907.633545
1439.015625	867.989380
1437.367188	810.156006
1435.718750	935.882996
1434.070313	900.807129
1432.421875	891.521240
1430.771484	862.532776
1429.123047	851.743103
1427.472656	909.143677
1425.822266	934.706726
1424.171875	879.985046
1422.521484	887.372009
1420.869141	899.297668
1419.218750	859.754150
1417.566406	908.000549
1415.914063	883.601868
1414.261719	859.213318
1412.607422	868.107422
1410.955078	842.220154
1409.300781	848.090454
1407.646484	852.446838
1405.992188	858.312439
1404.337891	861.153870
1402.683594	900.245605
1401.027344	851.731506
1399.371094	924.025269
1397.714844	867.978760
1396.058594	858.741272
1394.402344	918.916748
1392.744141	923.249573
1391.087891	820.493958
1389.429688	847.464600
1387.771484	818.641724
1386.113281	838.064819
1384.453125	831.860779
1382.794922	917.566650
1381.134766	857.119446
1379.474609	938.265747
1377.814453	862.782166
1376.154297	865.611694
1374.492188	897.036804
1372.832031	824.618835
1371.169922	819.932129
1369.507813	873.909058
1367.845703	843.648743
1366.181641	850.988892
1364.519531	850.809998
1362.855469	852.133911
1361.191406	854.959839
1359.527344	866.798035
1357.863281	821.557739
1356.199219	833.397827
1354.533203	881.264160
1352.867188	860.064941
1351.201172	816.364563
1349.535156	844.699524
1347.869141	825.021240
1346.201172	842.844299
1344.535156	800.683472
1342.867188	843.988586
1341.199219	834.818237
1339.531250	824.153259
1337.861328	822.481628
1336.193359	834.291077
1334.523438	876.045776
1332.853516	871.369690
1331.183594	812.807678
1329.511719	884.471741
1327.841797	840.894104
1326.169922	872.131653
1324.500000	856.991638
1322.828125	895.689087
1321.154297	855.135559
1319.482422	851.965942
1317.808594	815.921692
1316.136719	890.452087
1314.462891	805.121643
1312.789063	767.616516
1311.113281	860.026978
1309.439453	853.874512
1307.763672	855.186951
1306.087891	855.006592
1304.412109	810.070984
1302.736328	851.662903
1301.060547	852.974487
1299.382813	873.667114
1297.707031	830.255859
1296.029297	889.691467
1294.351563	847.784973
1292.671875	802.916809
1290.994141	875.724426
1289.314453	799.599915
1287.636719	850.046875
1285.957031	848.379028
1284.275391	836.295410
1282.595703	907.531128
1280.914063	865.691101
1279.234375	869.969666
1277.552734	835.589233
1275.871094	878.521240
1274.189453	829.291565
1272.505859	830.602234
1270.822266	869.051270
1269.140625	843.618530
1267.457031	801.862244
1265.771484	826.931274
1264.087891	880.191406
1262.404297	865.165466
1260.718750	832.341797
1259.033203	848.482788
1257.347656	831.989929
1255.662109	845.158630
1253.974609	831.638123
1252.287109	824.051758
1250.601563	819.432068
1248.914063	850.369873
1247.224609	796.867981
1245.537109	750.792969
1243.849609	820.219543
1242.160156	874.814453
1240.470703	837.631531
1238.781250	856.689087
1237.091797	880.176392
1235.400391	816.394226
1233.708984	792.562805
1232.019531	851.528992
1230.328125	809.963745
1228.634766	797.970520
1226.943359	827.349731
1225.250000	782.861633
1223.558594	790.079773
1221.865234	881.453735
1220.171875	841.410767
1218.476563	820.570679
1216.783203	832.201111
1215.087891	821.698242
1213.392578	846.597656
1211.697266	833.146851
1210.001953	883.096008
1208.306641	862.273254
1206.609375	835.564636
1204.912109	842.754272
1203.214844	792.492432
1201.517578	818.833435
1199.820313	815.715027
1198.121094	839.095642
1196.423828	847.748413
1194.724609	857.868958
1193.025391	798.840576
1191.326172	825.146423
1189.625000	873.499146
1187.923828	815.975037
1186.224609	787.873596
1184.523438	867.064880
1182.822266	840.433716
1181.119141	822.627625
1179.417969	832.733704
1177.714844	866.329102
1176.011719	870.549316
1174.308594	934.944702
1172.605469	881.919128
1170.900391	852.389709
1169.197266	888.878662
1167.492188	822.698059
1165.787109	884.102600
1164.080078	879.517273
1162.375000	855.881653
1160.667969	871.817444
1158.962891	884.816589
1157.255859	849.477783
1155.548828	890.297852
1153.839844	935.492493
1152.132813	838.690613
1150.423828	866.316406
1148.714844	892.467407
1147.005859	877.650208
1145.296875	889.163147
1143.585938	896.284729
1141.876953	891.708679
1140.166016	961.671387
1138.455078	903.019043
1136.744141	953.958008
1135.033203	901.174438
1133.320313	883.459534
1131.607422	940.209778
1129.894531	935.630859
1128.181641	881.436462
1126.468750	943.986816
1124.753906	930.657532
1123.041016	915.875488
1121.326172	892.351135
1119.611328	895.076721
1117.896484	953.184937
1116.179688	952.982056
1114.464844	907.616821
1112.748047	936.554321
1111.031250	948.004700
1109.314453	952.170593
1107.595703	902.477112
1105.878906	959.041504
1104.160156	915.187561
1102.441406	917.901917
1100.722656	924.978210
1099.003906	918.964905
1097.283203	882.425354
1095.562500	960.722961
1093.843750	945.986938
1092.123047	906.559143
1090.400391	951.393738
1088.679688	939.573303
1086.957031	930.661621
1085.236328	960.946350
1083.513672	911.398254
1081.789063	883.635620
1080.066406	932.769348
1078.341797	915.166260
1076.619141	958.472046
1074.894531	900.278625
1073.169922	910.232422
1071.443359	949.164063
1069.718750	895.356079
1067.992188	944.413513
1066.265625	910.903870
1064.539063	891.887146
1062.812500	907.619934
1061.085938	885.717407
1059.357422	871.058899
1057.628906	889.679138
1055.900391	872.133301
1054.171875	858.932922
1052.443359	874.652222
1050.712891	873.020020
1048.982422	856.937561
1047.251953	884.205322
1045.521484	849.349121
1043.791016	805.842712
1042.058594	863.424683
1040.328125	854.578918
1038.595703	835.634216
1036.863281	862.871216
1035.128906	861.244202
1033.396484	803.367615
1031.662109	891.158020
1029.927734	859.250244
1028.193359	817.266296
1026.458984	811.327209
1024.724609	891.836792
1022.988281	821.063416
1021.251953	783.443787
1019.515625	820.712158
1017.779297	771.592285
1016.042969	803.090271
1014.304688	843.208252
1012.568359	844.466431
1010.830078	835.655884
1009.089844	844.104980
1007.351563	784.979004
1005.613281	789.123108
1003.873047	799.013672
1002.132813	840.508850
1000.392578	790.052795
998.652344	847.329712
996.910156	855.763306
995.169922	831.175903
993.427734	782.200073
991.685547	833.689697
989.941406	801.949585
988.199219	800.343445
986.455078	831.719971
984.712891	784.229858
982.968750	842.830566
981.222656	844.083008
979.478516	808.082825
977.734375	825.099182
975.988281	786.254028
974.242188	790.381042
972.496094	788.780029
970.748047	794.335815
969.001953	844.247986
967.253906	808.301331
965.505859	782.382324
963.757813	810.814636
962.009766	780.616943
960.259766	764.726135
958.511719	787.427429
956.761719	791.544800
955.011719	894.225159
953.259766	751.216431
951.509766	778.184509
949.757813	802.285889
948.007813	782.132202
946.255859	850.457520
944.501953	770.383301
942.750000	758.807251
940.996094	784.312683
939.244141	802.678528
937.490234	803.931580
935.734375	775.256775
933.980469	766.541443
932.224609	809.111511
930.470703	801.816711
928.714844	818.731018
926.958984	771.577087
925.201172	765.718201
923.445313	798.281738
921.687500	744.049194
919.929688	768.069214
918.171875	759.371826
916.414063	713.712891
914.654297	759.045288
912.894531	703.458069
911.136719	735.985657
909.375000	791.227539
907.615234	725.727600
905.855469	735.510803
904.093750	756.646606
902.332031	723.840027
900.570313	823.013489
898.808594	785.950562
897.044922	758.832275
895.283203	680.674927
893.519531	755.670044
891.755859	744.167664
889.992188	725.584412
888.226563	779.268555
886.462891	772.018066
884.697266	720.867065
882.931641	739.119019
881.166016	712.062805
879.398438	741.631287
877.632813	713.171082
875.865234	761.117798
874.097656	755.296143
872.330078	728.265381
870.562500	677.211487
868.792969	691.200562
867.023438	734.860535
865.253906	784.153259
863.484375	724.655701
861.714844	725.911743
859.943359	761.054565
858.173828	749.597107
856.402344	676.044434
854.628906	684.364990
852.857422	672.931274
851.085938	768.696960
849.312500	720.586060
847.539063	757.086548
845.765625	677.988953
843.992188	691.934998
842.216797	697.421387
840.441406	688.819092
838.667969	759.086670
836.892578	734.986450
835.115234	667.257385
833.339844	672.742981
831.562500	655.712463
829.785156	687.927368
828.007813	691.998291
826.230469	672.162048
824.451172	711.381897
822.673828	701.389099
820.894531	698.427002
819.115234	702.491089
817.335938	714.981384
815.554688	794.876282
813.775391	720.288696
811.994141	715.921692
810.212891	705.942688
808.431641	680.533203
806.648438	739.306152
804.867188	715.302856
803.083984	674.482910
801.300781	686.954590
799.515625	695.215881
797.732422	679.650757
795.947266	725.738037
794.164063	707.371521
792.378906	672.207642
790.591797	715.466248
788.806641	712.511780
787.019531	694.163757
785.234375	687.017456
783.447266	695.262268
781.658203	693.713135
779.871094	661.401794
778.082031	683.626770
776.294922	633.161316
774.505859	707.086670
772.716797	683.182800
770.925781	684.431641
769.136719	660.542969
767.345703	693.908569
765.554688	686.778809
763.763672	665.696167
761.970703	699.038818
760.179688	677.962585
758.386719	683.394409
756.593750	691.612549
754.800781	678.915955
753.005859	701.069214
751.212891	636.817444
749.417969	699.372131
747.623047	598.933899
745.828125	636.403320
744.033203	664.110657
742.236328	686.238037
740.439453	688.872559
738.642578	645.590942
736.845703	656.579346
735.048828	657.827698
733.250000	622.923584
731.451172	671.443787
729.652344	664.348816
727.853516	648.919617
726.054688	622.383057
724.253906	637.526367
722.455078	663.772217
720.654297	640.026245
718.853516	673.200317
717.050781	703.584412
715.250000	647.934082
713.447266	736.570190
711.644531	650.426331
709.841797	664.150391
708.037109	669.551086
706.234375	673.563416
704.429688	629.076843
702.625000	682.968018
700.820313	684.204651
699.013672	660.515564
697.208984	657.603149
695.402344	629.777649
693.595703	675.307007
691.789063	687.611938
689.982422	626.600586
688.173828	658.271545
686.365234	698.224426
684.556641	706.366516
682.748047	634.347778
680.939453	635.591553
679.128906	649.267456
677.318359	669.843018
675.507813	648.984985
673.697266	639.180115
671.886719	647.322327
670.074219	656.840881
668.261719	653.938660
666.449219	630.347900
664.636719	644.000854
662.824219	660.405273
661.009766	667.153564
659.195313	676.655090
657.380859	676.507751
655.566406	683.247986
653.751953	655.554810
651.935547	644.396729
650.119141	619.477234
648.302734	685.405457
646.486328	663.239807
644.669922	653.465271
642.851563	657.449158
641.033203	653.180481
639.214844	662.661865
637.396484	681.760620
635.578125	665.121399
633.757813	692.454712
631.937500	668.952209
630.117188	679.792908
628.296875	671.406555
626.474609	654.787476
624.654297	631.313477
622.832031	664.106689
621.009766	687.282776
619.185547	676.160645
617.363281	651.331055
615.539063	674.494629
613.714844	671.606201
611.890625	607.054321
610.066406	657.612793
608.242188	601.310425
606.416016	645.000854
604.589844	655.813049
602.763672	648.825684
600.937500	656.895203
599.109375	659.488220
597.281250	696.278381
595.453125	700.229187
593.625000	672.729492
591.796875	687.619934
589.966797	619.132751
588.138672	684.586609
586.308594	680.338562
584.478516	722.531006
582.646484	693.696655
580.816406	678.527283
578.984375	728.882019
577.152344	712.346863
575.320313	701.276306
573.486328	699.758911
571.654297	705.060913
569.820313	695.362488
567.986328	733.378845
566.152344	729.129822
564.316406	707.169312
562.482422	711.101379
560.646484	712.307800
558.810547	739.385254
556.974609	699.743713
555.136719	664.202698
553.300781	691.272827
551.462891	719.691467
549.625000	651.525024
547.785156	700.338074
545.947266	664.835571
544.107422	697.312805
542.267578	652.313538
540.427734	710.594299
538.587891	677.837280
536.748047	718.431580
534.906250	661.246765
533.064453	644.811890
531.222656	644.670593
529.378906	647.243103
527.537109	637.605042
525.693359	656.453613
523.849609	649.529663
522.005859	629.051514
520.162109	665.509888
518.316406	645.037170
516.470703	680.121155
514.625000	595.991394
512.779297	624.299438
510.933594	629.578247
509.085938	636.208313
507.238281	641.482117
505.390625	610.221436
503.542969	589.796387
501.695313	603.191406
499.845703	582.776794
497.996094	619.148926
496.146484	651.450378
494.296875	587.798157
492.447266	637.654785
490.595703	622.657471
488.744141	611.717773
486.892578	616.983704
485.041016	597.951355
483.187500	639.653931
481.333984	654.354431
479.480469	597.557434
477.626953	613.609253
475.773438	660.664734
473.917969	629.515625
472.064453	605.118591
470.208984	633.281128
468.351563	565.786438
466.496094	620.881470
464.638672	609.972839
462.783203	625.993408
460.925781	600.283142
459.066406	621.681213
457.208984	594.637817
455.349609	607.957458
453.490234	623.960632
451.630859	627.856689
449.771484	561.855164
447.912109	589.952515
446.050781	558.920837
444.189453	596.409241
442.328125	574.790527
440.466797	605.545471
438.603516	609.439331
436.740234	552.937744
434.876953	566.233887
433.013672	575.499634
431.150391	615.608765
429.285156	600.723328
427.419922	580.481934
425.554688	604.479675
423.689453	572.186157
421.824219	598.854492
419.957031	565.237000
418.089844	586.538513
416.222656	605.152954
414.355469	603.681030
412.488281	540.650513
410.619141	551.234924
408.750000	565.827637
406.880859	623.209351
405.011719	565.578186
403.140625	604.219788
401.269531	633.489014
399.398438	591.927734
397.527344	543.705261
395.656250	580.981873
393.783203	560.824280
391.910156	551.355591
390.037109	599.283386
388.164063	524.424072
386.291016	538.983643
384.416016	600.220520
382.541016	550.747498
380.666016	591.956177
378.791016	518.513794
376.914063	597.025452
375.039063	638.196533
373.162109	572.784790
371.285156	563.335938
369.406250	612.475891
367.529297	568.411865
365.650391	558.970154
363.771484	584.127808
361.892578	534.777893
360.011719	522.689758
358.132813	533.211914
356.251953	511.823456
354.371094	525.001526
352.490234	572.723145
350.607422	571.268005
348.724609	559.187622
346.841797	552.424255
344.958984	544.336182
343.076172	558.816772
341.193359	565.328491
339.308594	541.321594
337.423828	555.793091
335.539063	517.210876
333.652344	510.467010
331.767578	513.005249
329.880859	546.024292
327.994141	561.803528
326.107422	519.288330
324.218750	536.390869
322.330078	533.623901
320.443359	476.580811
318.552734	536.034729
316.664063	513.420776
314.775391	523.890747
312.884766	526.420044
310.994141	551.428528
309.103516	502.389496
307.210938	486.416809
305.320313	479.701569
303.427734	511.304077
301.535156	527.041687
299.642578	516.359985
297.748047	520.206482
295.853516	545.171753
293.960938	539.771912
292.064453	515.902283
290.169922	496.000671
288.275391	514.354736
286.378906	469.409424
284.482422	537.855530
282.585938	477.109131
280.687500	492.815582
278.791016	511.149811
276.892578	505.767975
274.994141	485.903595
273.095703	543.722656
271.195313	501.482727
269.294922	502.687347
267.396484	501.260162
265.494141	522.194519
263.593750	498.407532
261.691406	520.647949
259.791016	527.104675
257.888672	500.703979
255.986328	483.512207
254.082031	474.209625
252.177734	480.670837
250.275391	510.763458
248.371094	527.715393
246.464844	494.787323
244.560547	505.174530
242.654297	470.954163
240.748047	491.834442
238.841797	521.884277
236.935547	507.347534
235.027344	516.409546
233.119141	475.672577
231.210938	487.357727
229.302734	499.037659
227.392578	505.474274
225.484375	515.835693
223.574219	547.135437
221.664063	501.211151
219.751953	484.091034
217.841797	519.301025
215.929688	525.724365
214.017578	520.377441
212.105469	477.124390
210.193359	550.204529
208.279297	534.402771
206.365234	526.445923
204.451172	521.104614
202.537109	507.931244
200.621094	541.759705
198.705078	528.587524
196.789063	472.360687
194.873047	486.605774
192.957031	567.362915
191.039063	556.804565
189.123047	524.088013
187.203125	548.736023
185.285156	521.248230
183.367188	526.343384
181.447266	536.646423
179.527344	496.157074
177.607422	498.650391
175.687500	476.410858
173.765625	527.058411
171.843750	546.457214
169.921875	504.709839
168.000000	521.503906
166.078125	522.687805
164.154297	526.471008
162.230469	539.349915
160.306641	561.318542
158.382813	553.398926
156.457031	572.756958
154.531250	525.883911
152.605469	601.061523
150.679688	512.670227
148.753906	519.043823
146.826172	511.144043
144.898438	579.772522
142.970703	510.915833
141.042969	584.699463
139.113281	588.457397
137.183594	559.816772
135.253906	535.075623
133.324219	525.889038
131.394531	538.721619
129.462891	538.601257
127.531250	546.247437
125.599609	525.419189
123.667969	542.121826
121.734375	521.303711
119.802734	496.615082
117.869141	493.918121
115.935547	489.929626
114.000000	467.849243
112.066406	478.081543
110.130859	488.309204
108.195313	502.406860
106.257813	490.673279
104.322266	450.543884
102.384766	464.640442
100.447266	461.955719
