#Wave		#Intensity
3501.405273	1288.626831
3500.167969	1339.121582
3498.929688	1348.966553
3497.691406	1383.036011
3496.453125	1358.551758
3495.213867	1332.058350
3493.975586	1412.523071
3492.736328	1396.116943
3491.497070	1436.196533
3490.256836	1385.507202
3489.017578	1409.442627
3487.777344	1465.624756
3486.537109	1507.676392
3485.296875	1537.620850
3484.055664	1543.375610
3482.814453	1585.388672
3481.573242	1595.160278
3480.332031	1691.517822
3479.089844	1663.012329
3477.848633	1698.931885
3476.606445	1718.737427
3475.363281	1696.279175
3474.121094	1826.727295
3472.877930	1870.634399
3471.634766	1882.348022
3470.391602	1926.227905
3469.147461	1990.194092
3467.904297	2072.225342
3466.660156	2067.815430
3465.416016	2101.581055
3464.170898	2117.254883
3462.926758	2134.931152
3461.681641	2152.600586
3460.436523	2218.446533
3459.190430	2236.093262
3457.945313	2332.001953
3456.699219	2429.880615
3455.453125	2391.305664
3454.206055	2485.124512
3452.959961	2522.757568
3451.712891	2546.341309
3450.465820	2555.883545
3449.218750	2661.625488
3447.970703	2727.250244
3446.722656	2736.752686
3445.474609	2644.093262
3444.226563	2717.694824
3442.978516	2835.319824
3441.729492	2868.817871
3440.480469	2910.309326
3439.231445	2943.780029
3437.981445	2977.238037
3436.731445	3096.702881
3435.481445	3190.121338
3434.231445	3317.499268
3432.981445	3402.843262
3431.730469	3334.236328
3430.479492	3645.382324
3429.228516	3580.751221
3427.977539	3610.041748
3426.725586	3787.130615
3425.473633	3652.612305
3424.221680	3825.632568
3422.969727	3665.205322
3421.716797	3758.320801
3420.463867	3709.717041
3419.210938	3726.971924
3417.958008	3618.548584
3416.704102	3490.221924
3415.450195	3495.543945
3414.196289	3375.263184
3412.942383	3169.316895
3411.687500	3087.008301
3410.433594	2915.066895
3409.178711	2818.892090
3407.922852	2676.942871
3406.667969	2704.315918
3405.412109	2514.657471
3404.156250	2402.705566
3402.900391	2392.299561
3401.643555	2346.079346
3400.386719	2045.218750
3399.129883	2028.918579
3397.873047	1966.882935
3396.616211	1936.684814
3395.358398	1892.582031
3394.100586	1792.842163
3392.842773	1798.464478
3391.583984	1780.241943
3390.326172	1724.282837
3389.067383	1618.691650
3387.808594	1616.399292
3386.548828	1612.122437
3385.289063	1484.777222
3384.030273	1486.480591
3382.769531	1404.844971
3381.509766	1434.336792
3380.249023	1440.015503
3378.988281	1344.552979
3377.727539	1330.419067
3376.466797	1318.272705
3375.205078	1385.410522
3373.943359	1323.717896
3372.681641	1254.123657
3371.419922	1283.598755
3370.157227	1247.706665
3368.894531	1192.026978
3367.631836	1170.023926
3366.369141	1084.689575
3365.105469	1124.063599
3363.842773	1175.294189
3362.578125	1113.746094
3361.314453	1085.844727
3360.050781	1081.683838
3358.786133	1158.585938
3357.521484	1049.645752
3356.255859	984.226746
3354.991211	1055.175415
3353.725586	1064.853271
3352.459961	957.988525
3351.194336	989.404480
3349.927734	999.089172
3348.661133	1048.252319
3347.394531	986.867493
3346.127930	907.745789
3344.860352	952.952148
3343.593750	950.798584
3342.326172	1003.868469
3341.057617	962.268738
3339.790039	906.884399
3338.521484	887.001038
3337.252930	888.803284
3335.984375	910.308533
3334.714844	896.345703
3333.446289	892.236206
3332.176758	803.450806
3330.906250	889.928345
3329.636719	968.499023
3328.366211	842.355347
3327.095703	879.582458
3325.825195	842.035278
3324.554688	855.644226
3323.283203	934.146606
3322.011719	932.002808
3320.740234	829.600037
3319.467773	900.200439
3318.195313	864.656982
3316.922852	817.338440
3315.650391	819.147461
3314.377930	872.019958
3313.104492	852.217773
3311.831055	838.312866
3310.557617	832.264771
3309.283203	887.056885
3308.009766	810.364624
3306.735352	821.981140
3305.460938	839.477295
3304.185547	841.278625
3302.911133	839.157898
3301.635742	876.243530
3300.359375	903.515442
3299.083984	840.638489
3297.807617	869.865906
3296.531250	836.401001
3295.254883	859.742737
3293.978516	832.166565
3292.701172	843.754150
3291.423828	910.141479
3290.146484	808.208374
3288.869141	851.098511
3287.590820	841.155579
3286.312500	858.597656
3285.034180	813.459229
3283.754883	844.585266
3282.476563	867.880615
3281.197266	807.131592
3279.917969	793.300232
3278.637695	824.406250
3277.357422	847.687561
3276.078125	851.431702
3274.796875	843.459656
3273.516602	825.730225
3272.235352	888.027527
3270.954102	794.194092
3269.672852	819.405273
3268.391602	801.693787
3267.109375	869.798706
3265.827148	850.134399
3264.544922	803.184875
3263.262695	826.421021
3261.979492	843.802063
3260.696289	826.105896
3259.413086	839.584290
3258.128906	816.052734
3256.845703	872.367310
3255.561523	759.282043
3254.277344	901.232178
3252.992188	899.114136
3251.707031	848.352722
3250.422852	846.245483
3249.136719	865.534241
3247.851563	845.922607
3246.565430	859.371155
3245.279297	812.553345
3243.993164	824.059509
3242.707031	854.992859
3241.419922	804.317017
3240.132813	866.321045
3238.845703	860.329529
3237.557617	831.040039
3236.270508	869.707581
3234.982422	817.136169
3233.694336	849.969788
3232.405273	836.226074
3231.116211	783.690979
3229.827148	814.572693
3228.538086	814.417114
3227.249023	858.852051
3225.958984	852.872925
3224.668945	874.027771
3223.378906	821.545349
3222.087891	772.957458
3220.797852	827.042053
3219.506836	813.328552
3218.215820	828.662109
3216.923828	861.411621
3215.631836	770.283813
3214.339844	808.836914
3213.047852	719.688538
3211.755859	787.250610
3210.462891	758.091553
3209.169922	757.946594
3207.876953	761.667969
3206.583008	751.858337
3205.289063	794.227966
3203.995117	846.241699
3202.701172	770.743958
3201.407227	730.038818
3200.112305	733.761047
3198.817383	758.718262
3197.521484	843.502380
3196.226563	725.620667
3194.930664	758.282837
3193.634766	729.201172
3192.338867	769.565063
3191.041992	775.202881
3189.745117	778.910522
3188.448242	780.689087
3187.151367	797.884949
3185.854492	768.828857
3184.556641	735.930847
3183.258789	795.500610
3181.959961	727.945923
3180.662109	752.836914
3179.363281	766.168091
3178.064453	810.288879
3176.764648	733.161377
3175.465820	717.629456
3174.166016	788.664124
3172.866211	775.050598
3171.565430	801.821838
3170.265625	790.133423
3168.964844	805.358826
3167.664063	737.943970
3166.362305	730.117126
3165.061523	720.372253
3163.759766	768.249756
3162.458008	771.943054
3161.155273	790.993958
3159.853516	698.705383
3158.550781	798.367310
3157.248047	796.295471
3155.944336	771.203369
3154.640625	759.547241
3153.337891	793.919861
3152.033203	812.940735
3150.729492	762.944214
3149.424805	810.712341
3148.120117	743.489502
3146.815430	814.233032
3145.509766	812.161377
3144.205078	735.401245
3142.899414	691.221130
3141.592773	733.204712
3140.287109	794.312195
3138.980469	767.368835
3137.673828	753.828674
3136.367188	732.642029
3135.059570	740.151550
3133.752930	776.340698
3132.445313	743.691040
3131.136719	760.751160
3129.829102	712.828430
3128.520508	817.780090
3127.211914	802.340393
3125.902344	733.427490
3124.593750	702.733032
3123.284180	796.150513
3121.974609	746.367065
3120.664063	761.491699
3119.354492	810.956909
3118.043945	787.907898
3116.733398	717.182678
3115.421875	703.695618
3114.111328	819.867188
3112.799805	779.677307
3111.488281	716.631592
3110.175781	783.188782
3108.864258	762.080994
3107.551758	742.886169
3106.238281	786.546143
3104.925781	826.381104
3103.612305	820.511047
3102.298828	749.928528
3100.985352	789.747437
3099.671875	747.737488
3098.357422	757.105042
3097.042969	726.528931
3095.727539	773.927734
3094.413086	747.162415
3093.097656	790.737305
3091.782227	735.472290
3090.466797	758.131775
3089.150391	733.289612
3087.833984	784.430908
3086.517578	755.795227
3085.201172	721.474670
3083.883789	708.048035
3082.566406	814.193420
3081.249023	736.238281
3079.931641	730.405090
3078.613281	760.613159
3077.294922	707.366821
3075.976563	743.255737
3074.658203	760.173889
3073.338867	1637.565552
3072.019531	1311.316162
3070.700195	850.675659
3069.379883	757.694214
3068.060547	793.531860
3066.740234	744.147827
3065.418945	783.760437
3064.098633	740.075562
3062.777344	802.382568
3061.456055	711.409729
3060.134766	773.698120
3058.812500	773.549072
3057.491211	754.490417
3056.167969	769.469727
3054.845703	748.528931
3053.523438	704.917847
3052.200195	729.345398
3050.876953	740.539612
3049.552734	797.059814
3048.229492	736.477234
3046.905273	766.543823
3045.580078	766.395996
3044.255859	781.346680
3042.930664	730.248413
3041.605469	745.200256
3040.280273	743.170288
3038.955078	686.451233
3037.628906	737.227112
3036.302734	729.544312
3034.976563	744.481689
3033.649414	714.187622
3032.322266	736.658203
3030.995117	712.028320
3029.667969	711.890869
3028.339844	741.880615
3027.012695	796.332275
3025.684570	786.767456
3024.355469	820.488953
3023.027344	793.989685
3021.698242	808.885376
3020.369141	727.856262
3019.039063	718.313721
3017.708984	686.214294
3016.378906	751.870422
3015.048828	721.656189
3013.718750	753.458923
3012.387695	749.556213
3011.056641	762.558960
3009.725586	758.655945
3008.393555	837.364258
3007.062500	765.871277
3005.730469	767.600098
3004.397461	724.294312
3003.065430	665.996826
3001.732422	707.133179
3000.399414	768.882080
2999.065430	753.733765
2997.732422	753.588074
2996.398438	764.687805
2995.064453	781.404785
2993.729492	799.988770
2992.395508	788.595154
2991.060547	775.333191
2989.724609	737.734741
2988.389648	803.114197
2987.053711	744.936157
2985.717773	789.704163
2984.381836	793.293335
2983.044922	751.986328
2981.708984	751.840820
2980.372070	766.654480
2979.034180	794.549011
2977.697266	824.301880
2976.359375	762.471802
2975.021484	831.456604
2973.682617	786.461731
2972.344727	739.616516
2971.005859	793.626648
2969.666016	675.852295
2968.327148	757.853333
2966.987305	662.526672
2965.647461	712.777954
2964.307617	733.161011
2962.967773	779.648682
2961.626953	749.660461
2960.286133	730.870544
2958.944336	762.418762
2957.603516	773.453491
2956.261719	786.347351
2954.919922	782.468933
2953.577148	737.613464
2952.235352	772.854187
2950.892578	783.876038
2949.549805	789.308838
2948.206055	725.874451
2946.863281	748.064026
2945.519531	699.546143
2944.174805	723.592285
2942.831055	769.946350
2941.486328	745.624634
2940.141602	713.876160
2938.796875	747.194214
2937.451172	797.224243
2936.105469	806.359436
2934.759766	821.063965
2933.414063	785.616882
2932.067383	727.900940
2930.720703	748.181519
2929.374023	798.152954
2928.027344	755.314453
2926.679688	725.480713
2925.332031	790.268005
2923.984375	754.874817
2922.635742	715.786499
2921.287109	776.829895
2919.938477	730.337830
2918.589844	750.582275
2917.240234	709.672058
2915.890625	804.015381
2914.541016	720.509766
2913.191406	753.703186
2911.840820	799.844055
2910.490234	768.219482
2909.139648	768.070313
2907.789063	791.976440
2906.437500	747.421326
2905.085938	784.270020
2903.734375	752.678955
2902.381836	833.887573
2901.029297	763.478210
2899.676758	765.178101
2898.324219	792.747803
2896.970703	731.625000
2895.617188	761.037659
2894.263672	773.817444
2892.910156	738.584290
2891.555664	738.440674
2890.201172	793.669434
2888.846680	795.360474
2887.491211	771.220520
2886.135742	813.497864
2884.780273	763.543335
2883.424805	779.990356
2882.068359	750.341248
2880.712891	678.309204
2879.355469	757.420837
2877.999023	757.273438
2876.641602	729.493774
2875.284180	790.131165
2873.926758	745.782898
2872.569336	723.544800
2871.210938	776.784912
2869.852539	780.314453
2868.494141	787.522583
2867.134766	735.859192
2865.775391	730.198059
2864.416016	706.149780
2863.056641	796.102417
2861.696289	836.388123
2860.335938	860.117432
2858.975586	826.874939
2857.614258	727.508240
2856.253906	780.633240
2854.892578	769.462646
2853.530273	784.001343
2852.168945	739.791504
2850.806641	702.940308
2849.444336	746.843262
2848.082031	741.193848
2846.718750	724.540894
2845.355469	790.420898
2843.992188	770.097656
2842.627930	780.946777
2841.264648	736.806152
2839.900391	808.129761
2838.535156	829.957886
2837.170898	818.805359
2835.805664	760.040222
2834.440430	743.412415
2833.075195	875.078430
2831.708984	765.086731
2830.342773	757.617554
2828.976563	750.151245
2827.609375	788.419800
2826.243164	744.371826
2824.875977	821.026367
2823.507813	751.394226
2822.140625	811.566772
2820.772461	765.721008
2819.404297	785.670105
2818.035156	816.572083
2816.666992	719.612122
2815.297852	788.862305
2813.928711	759.496948
2812.558594	788.554382
2811.189453	735.475403
2809.819336	751.753601
2808.448242	704.175354
2807.078125	817.121643
2805.707031	771.372681
2804.335938	754.813049
2802.963867	822.111572
2801.592773	712.600525
2800.220703	788.991699
2798.848633	748.758057
2797.475586	761.361877
2796.102539	750.286621
2794.729492	792.016724
2793.356445	746.352661
2791.982422	709.806458
2790.609375	769.716553
2789.234375	802.313599
2787.860352	778.510437
2786.485352	798.362793
2785.110352	805.479675
2783.735352	754.421448
2782.360352	736.098694
2780.984375	823.179016
2779.608398	804.849915
2778.231445	719.318787
2776.855469	833.592834
2775.478516	778.957214
2774.101563	769.727905
2772.723633	744.166748
2771.346680	769.426758
2769.968750	778.347900
2768.589844	814.475098
2767.211914	788.925049
2765.833008	765.198181
2764.454102	770.487183
2763.075195	752.210815
2761.695313	739.378174
2760.315430	757.351929
2758.935547	739.088745
2757.554688	746.188599
2756.174805	756.907166
2754.793945	821.934387
2753.412109	720.409302
2752.031250	779.988953
2750.649414	758.123840
2749.267578	817.672668
2747.884766	719.845093
2746.502930	764.911621
2745.120117	746.682312
2743.736328	809.801819
2742.353516	778.920044
2740.969727	771.539917
2739.585938	782.227905
2738.202148	753.175781
2736.817383	754.833984
2735.432617	738.436829
2734.047852	794.250610
2732.662109	792.290161
2731.277344	777.699585
2729.891602	685.540405
2728.504883	752.142883
2727.119141	755.602051
2725.732422	766.271851
2724.345703	780.542725
2722.958008	816.435303
2721.571289	720.772766
2720.183594	794.496094
2718.794922	819.557434
2717.407227	776.175720
2716.018555	740.013062
2714.629883	772.270813
2713.241211	802.716064
2711.851563	784.563965
2710.461914	841.981384
2709.072266	775.262268
2707.681641	850.642883
2706.291016	758.775513
2704.900391	760.424255
2703.509766	789.032410
2702.119141	770.907654
2700.727539	720.450500
2699.334961	783.178894
2697.943359	734.534973
2696.550781	730.799561
2695.158203	761.174866
2693.765625	741.281738
2692.372070	771.642944
2690.979492	748.167175
2689.584961	762.370728
2688.191406	817.818176
2686.796875	776.416016
2685.402344	758.335876
2684.007813	783.280518
2682.613281	768.790100
2681.217773	723.846558
2679.822266	727.286926
2678.425781	848.931641
2677.030273	816.533142
2675.633789	773.405640
2674.237305	810.842285
2672.839844	746.257690
2671.442383	781.895630
2670.044922	742.386475
2668.647461	749.394531
2667.249023	792.163452
2665.850586	797.371094
2664.452148	799.001709
2663.053711	730.933777
2661.654297	802.260864
2660.254883	809.248718
2658.855469	776.940247
2657.455078	737.501526
2656.054688	744.497864
2654.654297	760.416443
2653.252930	740.635437
2651.852539	779.744507
2650.451172	808.134399
2649.048828	818.676941
2647.647461	775.717529
2646.245117	716.728821
2644.842773	778.977173
2643.439453	746.744080
2642.037109	792.925171
2640.633789	739.323914
2639.229492	805.080933
2637.826172	751.498291
2636.421875	776.276550
2635.017578	850.887756
2633.613281	720.798401
2632.208008	759.803162
2630.802734	761.432434
2629.397461	819.979370
2627.991211	771.802429
2626.584961	760.982300
2625.178711	783.941711
2623.772461	798.005493
2622.365234	806.732910
2620.958008	779.924927
2619.550781	744.246216
2618.142578	729.892334
2616.735352	751.054871
2615.326172	759.782715
2613.917969	809.328491
2612.508789	773.678955
2611.099609	755.784912
2609.690430	787.564087
2608.281250	776.768005
2606.871094	870.588684
2605.460938	748.097595
2604.049805	790.487427
2602.639648	785.015259
2601.228516	756.513245
2599.817383	818.360962
2598.405273	747.359619
2596.993164	717.111145
2595.581055	789.551636
2594.168945	780.546021
2592.755859	748.539185
2591.342773	766.083801
2589.929688	863.221863
2588.516602	792.309448
2587.102539	742.643372
2585.688477	786.692932
2584.273438	749.420044
2582.859375	763.409180
2581.444336	810.961975
2580.028320	759.574585
2578.613281	782.383850
2577.197266	732.788086
2575.781250	750.297363
2574.365234	806.630859
2572.948242	742.941956
2571.531250	829.248657
2570.114258	822.028687
2568.696289	707.228149
2567.278320	812.887085
2565.860352	779.230042
2564.442383	736.773193
2563.023438	791.257751
2561.604492	815.768066
2560.185547	764.521179
2558.766602	700.966003
2557.346680	751.892639
2555.926758	698.928162
2554.505859	818.481873
2553.084961	767.284912
2551.665039	809.360596
2550.243164	791.609070
2548.822266	837.180786
2547.400391	770.194519
2545.978516	854.430237
2544.555664	782.193848
2543.133789	767.979858
2541.710938	757.285522
2540.287109	746.595398
2538.864258	809.676086
2537.440430	755.079773
2536.016602	839.201477
2534.591797	782.865540
2533.167969	794.995178
2531.743164	803.610718
2530.317383	785.908936
2528.892578	773.475830
2527.466797	752.279785
2526.041016	790.701538
2524.614258	781.780518
2523.187500	863.994202
2521.760742	774.461975
2520.333984	819.856018
2518.906250	760.143127
2517.479492	774.001465
2516.050781	829.873230
2514.623047	794.699890
2513.194336	778.791504
2511.765625	768.138550
2510.336914	760.988647
2508.907227	776.579224
2507.477539	788.666138
2506.047852	785.012939
2504.617188	791.849304
2503.186523	765.477234
2501.755859	802.019043
2500.325195	726.740112
2498.893555	794.714294
2497.461914	752.645874
2496.030273	797.890747
2494.597656	727.908997
2493.166016	764.414551
2491.732422	785.201477
2490.299805	800.746521
2488.866211	748.261597
2487.432617	814.379456
2485.999023	781.091064
2484.564453	803.597107
2483.130859	813.894348
2481.695313	798.050537
2480.260742	783.955017
2478.825195	785.541077
2477.389648	762.746460
2475.954102	802.639832
2474.517578	785.072998
2473.081055	757.070740
2471.644531	776.060791
2470.207031	770.687500
2468.770508	723.571716
2467.332031	775.598206
2465.894531	818.910645
2464.456055	773.551575
2463.017578	802.943298
2461.579102	797.570801
2460.140625	762.666626
2458.701172	802.464478
2457.261719	798.831726
2455.821289	866.386414
2454.380859	777.683228
2452.940430	737.610779
2451.500000	794.725952
2450.058594	768.544922
2448.617188	796.144287
2447.175781	815.061829
2445.734375	790.626038
2444.291992	780.067810
2442.849609	781.645691
2441.407227	807.482056
2439.963867	758.812744
2438.520508	760.393799
2437.077148	789.682373
2435.632813	829.347717
2434.188477	811.871887
2432.744141	770.172791
2431.299805	825.391663
2429.854492	801.006775
2428.409180	831.981689
2426.963867	757.454041
2425.517578	802.257263
2424.071289	764.066956
2422.625000	867.613586
2421.177734	786.226135
2419.730469	837.898254
2418.283203	758.276367
2416.835938	796.117859
2415.387695	775.240112
2413.939453	902.828003
2412.491211	804.271484
2411.041992	809.287842
2409.593750	816.027405
2408.143555	772.742920
2406.693359	795.007690
2405.244141	762.089661
2403.794922	751.594666
2402.343750	804.873169
2400.892578	806.435791
2399.441406	768.373169
2397.990234	825.061279
2396.539063	802.509094
2395.085938	774.800537
2393.634766	819.403259
2392.181641	746.953918
2390.728516	762.291565
2389.275391	856.761780
2387.822266	832.509888
2386.369141	775.593018
2384.914063	816.703247
2383.460938	866.392151
2382.005859	821.533264
2380.550781	814.495850
2379.095703	838.385254
2377.640625	812.452942
2376.183594	808.856079
2374.728516	843.033997
2373.271484	767.333923
2371.814453	854.711304
2370.357422	797.914368
2368.900391	835.498230
2367.443359	823.324524
2365.986328	818.015259
2364.527344	788.704041
2363.068359	767.975647
2361.611328	803.813843
2360.152344	788.231262
2358.693359	868.594299
2357.232422	777.639038
2355.773438	798.033813
2354.312500	777.328186
2352.851563	833.663269
2351.392578	754.767944
2349.931641	833.329895
2348.468750	817.765991
2347.007813	836.417542
2345.546875	817.438904
2344.083984	730.076538
2342.621094	834.206299
2341.158203	808.402954
2339.695313	772.357361
2338.232422	775.619629
2336.769531	806.209717
2335.304688	824.833435
2333.839844	804.179688
2332.375000	769.877808
2330.910156	844.818726
2329.445313	854.887756
2327.980469	875.188904
2326.515625	839.194397
2325.048828	803.214294
2323.582031	786.003479
2322.115234	726.183167
2320.648438	790.801636
2319.181641	799.163086
2317.714844	787.077637
2316.246094	814.172607
2314.779297	796.980042
2313.310547	795.117737
2311.841797	772.828979
2310.373047	827.135742
2308.904297	750.398682
2307.433594	808.090576
2305.964844	814.732239
2304.494141	823.071716
2303.023438	777.000793
2301.552734	773.445251
2300.082031	712.106812
2298.611328	766.338379
2297.138672	699.929260
2295.667969	835.670227
2294.195313	750.593872
2292.722656	789.493530
2291.250000	802.915161
2289.777344	780.691101
2288.302734	811.077148
2286.830078	826.182678
2285.355469	788.701965
2283.880859	859.767029
2282.408203	827.380920
2280.931641	839.080688
2279.457031	843.996582
2277.982422	748.938965
2276.505859	764.035461
2275.029297	872.282227
2273.554688	860.253235
2272.078125	780.506165
2270.599609	788.813110
2269.123047	795.424255
2267.646484	771.575806
2266.167969	818.788757
2264.689453	857.525879
2263.210938	774.493042
2261.732422	828.439636
2260.253906	797.846863
2258.775391	790.926514
2257.294922	838.078491
2255.814453	741.617981
2254.333984	836.052673
2252.853516	854.459900
2251.373047	805.326965
2249.892578	789.973328
2248.412109	788.126892
2246.929688	816.652527
2245.447266	819.862244
2243.964844	765.725525
2242.482422	797.610901
2241.000000	795.764587
2239.517578	841.115845
2238.033203	807.241394
2236.548828	803.709167
2235.066406	810.285828
2233.582031	789.911865
2232.095703	865.528809
2230.611328	796.328308
2229.126953	806.267456
2227.640625	777.496033
2226.154297	853.054504
2224.667969	760.361023
2223.181641	852.711121
2221.695313	761.736450
2220.208984	806.975525
2218.720703	830.345093
2217.234375	779.762207
2215.746094	821.609802
2214.257813	834.883118
2212.769531	796.086365
2211.279297	822.792725
2209.791016	784.013855
2208.300781	807.354858
2206.812500	775.307251
2205.322266	828.841187
2203.832031	867.256226
2202.341797	789.932983
2200.849609	818.279480
2199.359375	774.526489
2197.867188	838.063171
2196.375000	816.109009
2194.882813	854.479858
2193.390625	825.830688
2191.898438	820.639893
2190.404297	833.869934
2188.912109	827.005432
2187.417969	801.732178
2185.923828	788.183105
2184.429688	783.004883
2182.935547	811.283752
2181.439453	807.775269
2179.945313	785.875305
2178.449219	865.960205
2176.953125	864.114075
2175.458984	837.202698
2173.960938	800.277832
2172.464844	840.205627
2170.968750	861.746765
2169.470703	816.490540
2167.972656	866.407043
2166.474609	817.829956
2164.976563	837.689270
2163.478516	820.836487
2161.980469	887.391968
2160.480469	777.145020
2158.982422	843.682312
2157.482422	871.851257
2155.982422	813.341309
2154.482422	796.513550
2152.980469	829.672852
2151.480469	886.138123
2149.978516	864.309692
2148.476563	822.510071
2146.974609	877.277771
2145.472656	820.513367
2143.970703	831.995422
2142.468750	845.136536
2140.964844	843.302368
2139.462891	869.739624
2137.958984	856.262634
2136.455078	842.791016
2134.949219	791.099426
2133.445313	827.495483
2131.941406	880.489807
2130.435547	822.177917
2128.929688	911.685669
2127.423828	848.410095
2125.917969	879.777649
2124.412109	851.386108
2122.906250	857.851013
2121.398438	867.631104
2119.890625	847.552185
2118.382813	863.963440
2116.875000	868.762451
2115.367188	861.956177
2113.859375	828.636230
2112.349609	853.322571
2110.841797	879.655457
2109.332031	866.227234
2107.822266	884.267029
2106.312500	786.407837
2104.800781	880.598450
2103.291016	845.666687
2101.779297	905.060608
2100.269531	851.941162
2098.757813	904.694031
2097.246094	904.510742
2095.732422	841.503967
2094.220703	874.391785
2092.707031	813.069153
2091.195313	834.383545
2089.681641	845.777832
2088.167969	903.411560
2086.654297	871.854858
2085.138672	832.056396
2083.625000	853.345093
2082.109375	856.472595
2080.593750	788.652954
2079.078125	874.270508
2077.562500	826.265503
2076.046875	814.555603
2074.531250	857.253052
2073.013672	871.913269
2071.496094	855.257446
2069.978516	832.018066
2068.460938	856.557678
2066.943359	830.033630
2065.425781	867.736023
2063.906250	888.960815
2062.386719	859.154419
2060.869141	807.967773
2059.349609	909.807556
2057.828125	853.696655
2056.308594	848.589661
2054.789063	873.080688
2053.267578	881.122864
2051.746094	857.934204
2050.224609	862.689636
2048.703125	857.585754
2047.181641	880.407288
2045.658203	853.953003
2044.136719	893.184753
2042.613281	937.325134
2041.089844	937.134705
2039.566406	853.259216
2038.042969	864.569702
2036.517578	900.478760
2034.994141	887.176697
2033.468750	872.240417
2031.943359	909.765137
2030.417969	907.941284
2028.892578	817.636475
2027.367188	933.783630
2025.839844	892.646667
2024.314453	887.552490
2022.787109	915.204712
2021.259766	865.912048
2019.732422	869.008972
2018.203125	872.104675
2016.675781	886.650269
2015.146484	933.900879
2013.619141	904.276917
2012.089844	873.030090
2010.560547	831.988525
2009.029297	895.553894
2007.500000	890.469971
2005.968750	839.648438
2004.439453	859.076233
2002.908203	860.534241
2001.376953	886.479980
1999.843750	889.563965
1998.312500	863.272522
1996.781250	877.780823
1995.248047	854.764832
1993.714844	859.483398
1992.181641	843.002686
1990.648438	818.377441
1989.115234	870.367615
1987.580078	889.745117
1986.044922	852.091370
1984.511719	790.019348
1982.976563	885.944214
1981.441406	849.942322
1979.904297	870.931946
1978.369141	891.912964
1976.832031	890.103882
1975.294922	842.741882
1973.759766	902.753662
1972.220703	865.165833
1970.683594	877.996765
1969.146484	892.447998
1967.607422	874.388184
1966.068359	844.961182
1964.531250	927.643127
1962.992188	838.119507
1961.451172	891.538269
1959.912109	894.603577
1958.371094	835.983337
1956.832031	874.763245
1955.291016	868.094360
1953.750000	866.294922
1952.208984	872.605835
1950.666016	893.508728
1949.125000	896.568909
1947.582031	850.999207
1946.039063	771.415100
1944.496094	837.689453
1942.953125	871.537537
1941.410156	863.261414
1939.865234	809.648315
1938.322266	843.481262
1936.777344	862.732605
1935.232422	912.723816
1933.687500	857.526184
1932.142578	828.233459
1930.595703	881.435547
1929.050781	816.576111
1927.503906	845.508972
1925.957031	846.952515
1924.410156	820.923523
1922.863281	886.997864
1921.314453	886.816528
1919.767578	886.635193
1918.218750	867.077881
1916.669922	844.299866
1915.121094	884.477478
1913.572266	906.888123
1912.021484	909.929321
1910.472656	858.126587
1908.921875	867.627197
1907.371094	844.876648
1905.820313	849.539917
1904.269531	913.834106
1902.718750	866.917358
1901.166016	878.017273
1899.615234	842.401917
1898.062500	850.281433
1896.509766	837.226990
1894.957031	898.225037
1893.402344	815.962158
1891.849609	905.902649
1890.294922	870.325012
1888.740234	820.286255
1887.185547	878.008972
1885.630859	873.005920
1884.076172	859.967834
1882.519531	890.326294
1880.964844	944.773743
1879.408203	812.853027
1877.851563	883.354858
1876.294922	859.087341
1874.736328	907.074524
1873.179688	853.919922
1871.621094	881.026245
1870.064453	919.352600
1868.505859	851.790894
1866.947266	907.749146
1865.386719	869.079834
1863.828125	873.711060
1862.267578	847.886963
1860.708984	882.967712
1859.148438	847.539246
1857.587891	890.614685
1856.025391	827.973694
1854.464844	882.243530
1852.902344	870.856689
1851.341797	869.077515
1849.779297	899.302673
1848.216797	910.317139
1846.652344	882.938416
1845.089844	909.943542
1843.525391	892.169250
1841.962891	909.570068
1840.398438	885.410217
1838.833984	846.879211
1837.267578	913.802734
1835.703125	868.892700
1834.136719	942.171753
1832.572266	959.540588
1831.005859	876.338745
1829.439453	888.926086
1827.873047	928.633240
1826.304688	859.846252
1824.738281	867.644287
1823.169922	910.520386
1821.601563	870.476318
1820.033203	898.988586
1818.464844	943.425354
1816.896484	927.298462
1815.326172	938.258667
1813.755859	882.323364
1812.185547	853.480347
1810.615234	902.656494
1809.044922	859.496094
1807.474609	891.145996
1805.902344	914.827881
1804.332031	913.049072
1802.759766	908.090210
1801.187500	879.283020
1799.615234	826.642151
1798.041016	888.457520
1796.468750	891.452820
1794.894531	854.728943
1793.320313	881.555725
1791.746094	873.434021
1790.171875	962.167419
1788.597656	885.773804
1787.021484	898.288147
1785.445313	864.781372
1783.871094	940.751892
1782.294922	927.869446
1780.716797	902.305969
1779.140625	894.192932
1777.564453	881.327820
1775.986328	890.655090
1774.408203	907.900818
1772.830078	852.268799
1771.251953	936.035522
1769.673828	886.754517
1768.093750	896.070801
1766.513672	903.800354
1764.935547	833.983643
1763.355469	876.530762
1761.773438	860.531555
1760.193359	914.126282
1758.613281	955.049255
1757.031250	875.808350
1755.449219	911.980530
1753.867188	907.051819
1752.285156	924.243774
1750.701172	878.245422
1749.119141	949.130676
1747.535156	922.093140
1745.951172	858.758911
1744.367188	929.604187
1742.783203	957.815491
1741.199219	875.581421
1739.613281	966.884094
1738.029297	879.951111
1736.443359	871.886292
1734.857422	900.080139
1733.271484	915.654358
1731.683594	854.014160
1730.097656	904.248962
1728.509766	924.537537
1726.921875	962.139404
1725.333984	875.350342
1723.746094	905.076477
1722.158203	873.415100
1720.568359	926.730225
1718.978516	912.381165
1717.390625	920.056458
1715.800781	912.004272
1714.208984	874.085571
1712.619141	911.627502
1711.027344	947.582397
1709.437500	942.673218
1707.845703	931.482849
1706.253906	909.303711
1704.662109	901.265015
1703.068359	951.313049
1701.476563	932.282410
1699.882813	950.919800
1698.289063	961.705139
1696.695313	1017.973206
1695.101563	895.442993
1693.505859	893.689941
1691.912109	940.531677
1690.316406	896.454712
1688.720703	880.600281
1687.125000	900.783630
1685.529297	917.826111
1683.933594	909.806519
1682.335938	947.192871
1680.738281	946.996826
1679.140625	959.320557
1677.542969	965.380554
1675.945313	988.645386
1674.347656	922.753235
1672.748047	986.672424
1671.148438	966.144714
1669.548828	964.381653
1667.949219	973.558105
1666.349609	973.356506
1664.748047	948.162170
1663.148438	966.706482
1661.546875	939.962402
1659.945313	1049.042969
1658.343750	1048.825684
1656.742188	1111.025513
1655.138672	1087.393799
1653.537109	1176.076050
1651.933594	1263.161987
1650.330078	1333.061279
1648.726563	1239.256226
1647.121094	1268.610596
1645.517578	1251.207886
1643.912109	1227.580811
1642.306641	1157.237793
1640.701172	1068.237549
1639.095703	1150.530396
1637.490234	1133.169678
1635.884766	1134.490967
1634.277344	1148.258789
1632.669922	1085.797241
1631.062500	1001.587891
1629.455078	1004.489929
1627.845703	929.659973
1626.238281	960.552917
1624.628906	994.540955
1623.019531	992.780884
1621.410156	899.375305
1619.800781	958.202698
1618.191406	908.317993
1616.580078	993.509094
1614.968750	931.221436
1613.359375	909.304077
1611.746094	902.909668
1610.134766	986.479858
1608.523438	924.245117
1606.910156	911.649719
1605.298828	905.259949
1603.685547	963.963562
1602.070313	966.862183
1600.457031	920.187195
1598.843750	929.288879
1597.228516	941.483704
1595.613281	955.221558
1593.998047	950.379456
1592.382813	925.421448
1590.767578	946.889954
1589.152344	982.271423
1587.535156	881.540649
1585.917969	909.189697
1584.300781	916.730225
1582.683594	902.629150
1581.066406	948.799744
1579.447266	894.528931
1577.828125	940.681885
1576.210938	959.017944
1574.591797	900.146729
1572.970703	927.745483
1571.351563	952.246033
1569.730469	950.504822
1568.111328	928.709106
1566.490234	934.685364
1564.869141	948.369385
1563.248047	954.338928
1561.625000	929.477478
1560.003906	935.448364
1558.380859	872.081604
1556.757813	870.359497
1555.134766	959.506287
1553.511719	987.023193
1551.886719	897.526733
1550.263672	934.280029
1548.638672	900.230530
1547.013672	958.507324
1545.388672	1098.285156
1543.761719	4742.864746
1542.136719	1828.174805
1540.509766	916.202759
1538.882813	849.923706
1537.255859	909.674438
1535.628906	906.412231
1534.001953	953.838379
1532.373047	972.067322
1530.746094	935.016663
1529.117188	960.916870
1527.488281	954.577698
1525.859375	949.775513
1524.228516	981.792480
1522.599609	958.581665
1520.968750	916.979614
1519.337891	936.718506
1517.707031	961.047363
1516.076172	928.665344
1514.443359	963.710571
1512.810547	980.359375
1511.179688	1000.064148
1509.546875	904.922729
1507.914063	973.622192
1506.279297	933.625061
1504.646484	910.476929
1503.011719	917.936279
1501.376953	955.983948
1499.742188	932.845459
1498.107422	973.931885
1496.472656	932.455811
1494.835938	935.317627
1493.201172	959.569885
1491.564453	930.343872
1489.927734	974.442322
1488.289063	971.184692
1486.652344	929.760803
1485.013672	957.041321
1483.376953	949.210999
1481.738281	933.755127
1480.099609	948.814209
1478.458984	966.917114
1476.820313	916.396973
1475.179688	961.939392
1473.539063	1007.462708
1471.898438	937.155823
1470.257813	947.624390
1468.617188	948.949341
1466.974609	967.025330
1465.333984	979.003479
1463.691406	978.798645
1462.048828	937.502014
1460.406250	954.043457
1458.761719	970.577881
1457.119141	981.021484
1455.474609	967.130371
1453.830078	939.562012
1452.185547	918.085205
1450.539063	925.491455
1448.894531	922.258972
1447.248047	919.027710
1445.603516	973.509766
1443.957031	877.645569
1442.308594	948.812439
1440.662109	944.060303
1439.015625	951.449890
1437.367188	934.561951
1435.718750	940.433472
1434.070313	982.698669
1432.421875	1002.203247
1430.771484	953.485229
1429.123047	898.725342
1427.472656	1003.088501
1425.822266	948.341064
1424.171875	1001.153381
1422.521484	973.686340
1420.869141	937.146912
1419.218750	921.813904
1417.566406	994.260620
1415.914063	906.297119
1414.261719	963.589600
1412.607422	925.577942
1410.955078	973.769836
1409.300781	904.025146
1407.646484	961.269836
1405.992188	971.645935
1404.337891	972.952820
1402.683594	954.622864
1401.027344	906.097351
1399.371094	991.968323
1397.714844	949.493286
1396.058594	950.803162
1394.402344	884.212158
1392.744141	899.112305
1391.087891	917.022644
1389.429688	928.893616
1387.771484	916.637512
1386.113281	952.620422
1384.453125	919.266418
1382.794922	878.393005
1381.134766	930.931152
1379.474609	977.422913
1377.814453	932.045654
1376.154297	921.311951
1374.492188	937.674377
1372.832031	883.305237
1371.169922	919.226685
1369.507813	965.661987
1367.845703	930.870850
1366.181641	933.682190
1364.519531	889.893127
1362.855469	957.335632
1361.191406	957.134338
1359.527344	958.435242
1357.863281	928.195007
1356.199219	934.006226
1354.533203	930.807129
1352.867188	980.143860
1351.201172	894.399414
1349.535156	913.715820
1347.869141	942.024231
1346.201172	913.331238
1344.535156	899.644348
1342.867188	984.903198
1341.199219	957.717896
1339.531250	915.559387
1337.861328	927.351746
1336.193359	939.139099
1334.523438	986.861816
1332.853516	964.195984
1331.183594	949.024109
1329.511719	902.430542
1327.841797	917.203003
1326.169922	927.481323
1324.500000	945.233398
1322.828125	949.520142
1321.154297	961.279968
1319.482422	919.226440
1317.808594	969.841003
1316.136719	906.886597
1314.462891	948.519958
1312.789063	984.161987
1311.113281	897.354553
1309.439453	976.283081
1307.763672	902.946045
1306.087891	905.739990
1304.412109	926.434753
1302.736328	893.425720
1301.060547	948.412170
1299.382813	916.903198
1297.707031	919.690918
1296.029297	937.380127
1294.351563	923.772705
1292.671875	945.922424
1290.994141	962.105408
1289.314453	921.698975
1287.636719	943.834900
1285.957031	925.775024
1284.275391	946.412598
1282.595703	898.604553
1280.914063	940.063171
1279.234375	905.660767
1277.552734	1016.980530
1275.871094	946.900208
1274.189453	928.866028
1272.505859	915.296936
1270.822266	934.415833
1269.140625	975.805237
1267.457031	941.445679
1265.771484	956.092896
1264.087891	991.514099
1262.404297	961.624756
1260.718750	931.747986
1259.033203	941.934570
1257.347656	938.769348
1255.662109	953.398254
1253.974609	938.372437
1252.287109	967.816162
1250.601563	955.757141
1248.914063	1005.925354
1247.224609	964.239929
1245.537109	882.588989
1243.849609	977.156860
1242.160156	928.102661
1240.470703	954.544739
1238.781250	948.424377
1237.091797	930.472168
1235.400391	937.670166
1233.708984	983.310181
1232.019531	928.403137
1230.328125	932.640747
1228.634766	925.054688
1226.943359	936.678101
1225.250000	980.792725
1223.558594	934.804688
1221.865234	927.224365
1220.171875	941.789551
1218.476563	960.776062
1216.783203	951.719360
1215.087891	907.261108
1213.392578	951.316162
1211.697266	936.368591
1210.001953	946.490173
1208.306641	940.393738
1206.609375	947.562683
1204.912109	931.155029
1203.214844	951.580139
1201.517578	963.160217
1199.820313	945.287109
1198.121094	893.563232
1196.423828	950.773376
1194.724609	953.514709
1193.025391	934.187378
1191.326172	941.343506
1189.625000	941.143860
1187.923828	961.527344
1186.224609	920.165771
1184.523438	1015.494629
1182.822266	1010.871277
1181.119141	935.738892
1179.417969	1000.161621
1177.714844	958.835449
1176.011719	917.526733
1174.308594	901.186890
1172.605469	983.171082
1170.900391	921.343811
1169.197266	919.681335
1167.492188	978.145447
1165.787109	1001.396484
1164.080078	1001.183838
1162.375000	961.401306
1160.667969	943.614197
1158.962891	952.203308
1157.255859	949.071777
1155.548828	853.690247
1153.839844	945.740479
1152.132813	985.058960
1150.423828	888.267029
1148.714844	939.285339
1147.005859	933.234680
1145.296875	949.123169
1143.585938	943.072815
1141.876953	947.257751
1140.166016	929.518250
1138.455078	961.466919
1136.744141	917.435852
1135.033203	947.912781
1133.320313	959.393250
1131.607422	963.569031
1129.894531	967.742981
1128.181641	967.537048
1126.468750	914.806396
1124.753906	888.354919
1123.041016	924.625916
1121.326172	997.333618
1119.611328	905.281189
1117.896484	948.812561
1116.179688	929.667480
1114.464844	906.159973
1112.748047	951.119690
1111.031250	931.986206
1109.314453	937.611389
1107.595703	985.446777
1105.878906	956.130920
1104.160156	961.747192
1102.441406	907.719177
1100.722656	977.335449
1099.003906	923.327026
1097.283203	972.557739
1095.562500	933.107666
1093.843750	961.971313
1092.123047	919.634521
1090.400391	925.248535
1088.679688	898.911682
1086.957031	961.151306
1085.236328	968.204285
1083.513672	904.141907
1081.789063	961.987549
1080.066406	928.417358
1078.341797	915.166260
1076.619141	883.070313
1074.894531	926.373657
1073.169922	891.390015
1071.443359	896.996277
1069.718750	899.702454
1067.992188	925.583191
1066.265625	868.906738
1064.539063	949.801941
1062.812500	891.696777
1061.085938	921.898682
1059.357422	913.020203
1057.628906	943.204590
1055.900391	921.308289
1054.171875	905.205383
1052.443359	910.794861
1050.712891	945.289856
1048.982422	978.325012
1047.251953	931.883057
1045.521484	947.573120
1043.791016	899.713318
1042.058594	919.734985
1040.328125	978.723816
1038.595703	894.806946
1036.863281	933.574707
1035.128906	910.293274
1033.396484	943.271851
1031.662109	980.562256
1029.927734	908.267822
1028.193359	967.170471
1026.458984	920.849121
1024.724609	930.737610
1022.988281	924.776672
1021.251953	940.420593
1019.515625	909.982605
1017.779297	909.787964
1016.042969	882.247925
1014.304688	932.421387
1012.568359	907.765442
1010.830078	890.311462
1009.089844	926.070923
1007.351563	946.000305
1005.613281	902.676331
1003.873047	893.860657
1002.132813	922.404602
1000.392578	854.693481
998.652344	904.775818
996.910156	983.553467
995.169922	984.778381
993.427734	914.241150
991.685547	892.521484
989.941406	873.680298
988.199219	870.624512
986.455078	889.079956
984.712891	893.190491
982.968750	874.365051
981.222656	935.800049
979.478516	891.183533
977.734375	939.696289
975.988281	909.419556
974.242188	853.382385
972.496094	876.104126
970.748047	851.585205
969.001953	917.225342
967.253906	931.334839
965.505859	902.528748
963.757813	983.845642
962.009766	879.266357
960.259766	880.507080
958.511719	864.598206
956.761719	882.986816
955.011719	877.083435
953.259766	884.036011
951.509766	910.975647
949.757813	862.243225
948.007813	892.030334
946.255859	847.603638
944.501953	837.435181
942.750000	918.556091
940.996094	909.802734
939.244141	872.538696
937.490234	913.688171
935.734375	896.390625
933.980469	891.923706
932.224609	824.780945
930.470703	853.087402
928.714844	945.456299
926.958984	888.310181
925.201172	889.542542
923.445313	870.852844
921.687500	930.417175
919.929688	901.770142
918.171875	878.823547
916.414063	899.960693
914.654297	892.659973
912.894531	879.677856
911.136719	845.388977
909.375000	941.802246
907.615234	886.211426
905.855469	891.700378
904.093750	857.438171
902.332031	889.897400
900.570313	872.678101
898.808594	882.421082
897.044922	912.017090
895.283203	879.205078
893.519531	897.446838
891.755859	866.069458
889.992188	863.048645
888.226563	862.862854
886.462891	823.013733
884.697266	842.663879
882.931641	836.818665
881.166016	843.716553
879.398438	830.796875
877.632813	786.752197
875.865234	854.489136
874.097656	828.845581
872.330078	825.838806
870.562500	821.419373
868.792969	814.174866
867.023438	850.742432
865.253906	868.926575
863.484375	781.159058
861.714844	844.543213
859.943359	847.185059
858.173828	868.177429
856.402344	804.478760
854.628906	860.747681
852.857422	782.970398
851.085938	812.421021
849.312500	819.296509
847.539063	809.250793
845.765625	858.410095
843.992188	811.720093
842.216797	856.630737
840.441406	776.154053
838.667969	805.561340
836.892578	789.899231
835.115234	840.406494
833.339844	819.113831
831.562500	755.617126
829.785156	755.453979
828.007813	819.989868
826.230469	842.311890
824.451172	794.329590
822.673828	836.325684
820.894531	844.576721
819.115234	764.310303
817.335938	778.191895
815.554688	780.832520
813.775391	805.937073
811.994141	753.823425
810.212891	830.851074
808.431641	746.481812
806.648438	843.117615
804.867188	784.028015
803.083984	779.651733
801.300781	779.483154
799.515625	801.740906
797.732422	795.962158
795.947266	766.368164
794.164063	762.000183
792.378906	798.246582
790.591797	726.667297
788.806641	771.304504
787.019531	792.130432
785.234375	783.563660
783.447266	783.394104
781.658203	794.413452
779.871094	812.419556
778.082031	759.119324
776.294922	774.329712
774.505859	788.136108
772.716797	794.950928
770.925781	804.556396
769.136719	802.985657
767.345703	765.114441
765.554688	769.136414
763.763672	784.321228
761.970703	743.687988
760.179688	760.266663
758.386719	806.126465
756.593750	752.965332
754.800781	770.925110
753.005859	786.089539
751.212891	756.656189
749.417969	763.458008
747.623047	791.149902
745.828125	799.333740
744.033203	756.000183
742.236328	789.243347
740.439453	796.030457
738.642578	701.245361
736.845703	701.093201
735.048828	792.731018
733.250000	748.064514
731.451172	747.902161
729.652344	758.858704
727.853516	726.734375
726.054688	758.529358
724.253906	708.362610
722.455078	734.593079
720.654297	724.715210
718.853516	721.781799
717.050781	727.176025
715.250000	818.589111
713.447266	739.344482
711.644531	726.702332
709.841797	730.704102
708.037109	736.090332
706.234375	778.894287
704.429688	738.541748
702.625000	766.087891
700.820313	754.841187
699.013672	775.448059
697.208984	742.053223
695.402344	718.361816
693.595703	726.508606
691.789063	694.529541
689.982422	756.623657
688.173828	684.547119
686.365234	731.407410
684.556641	739.542236
682.748047	744.909485
680.939453	717.113037
679.128906	773.595276
677.318359	733.374512
675.507813	742.880676
673.697266	744.099548
671.886719	719.093689
670.074219	723.076904
668.261719	750.511902
666.449219	740.693298
664.636719	692.266479
662.824219	732.098511
661.009766	766.399536
659.195313	777.257568
657.380859	750.909790
655.566406	739.726135
653.751953	716.152344
651.935547	691.211853
650.119141	773.658203
648.302734	718.437012
646.486328	758.184937
644.669922	781.406921
642.851563	804.618713
641.033203	767.315186
639.214844	776.771667
637.396484	760.108093
635.578125	769.561951
633.757813	788.629028
631.937500	792.577881
630.117188	788.285095
628.296875	821.065674
626.474609	790.686768
624.654297	782.279785
622.832031	787.597595
621.009766	810.746765
619.185547	761.195068
617.363281	789.824646
615.539063	767.717468
613.714844	816.892456
611.890625	787.937317
610.066406	800.095581
608.242188	830.054932
606.416016	855.892822
604.589844	854.336853
602.763672	784.339905
600.937500	881.334351
599.109375	851.040771
597.281250	830.335876
595.453125	846.566162
593.625000	877.829956
591.796875	817.488525
589.966797	839.177734
588.138672	830.795715
586.308594	868.866089
584.478516	853.651917
582.646484	895.797241
580.816406	849.183044
578.984375	891.310791
577.152344	850.176453
575.320313	918.208069
573.486328	852.532776
571.654297	880.985168
569.820313	827.617737
567.986328	858.789307
566.152344	785.007080
564.316406	825.712158
562.482422	850.052246
560.646484	785.853882
558.810547	826.531921
556.974609	795.039551
555.136719	822.086975
553.300781	779.723083
551.462891	787.715210
549.625000	752.178162
547.785156	773.771545
545.947266	765.444641
544.107422	685.079224
542.267578	748.801575
540.427734	724.181152
538.587891	767.491089
536.748047	729.296326
534.906250	670.751282
533.064453	746.624268
531.222656	730.174255
529.378906	739.512573
527.537109	727.141052
525.693359	755.464172
523.849609	688.854004
522.005859	696.837280
520.162109	692.618225
518.316406	685.690796
516.470703	749.217102
514.625000	684.035522
512.779297	713.678589
510.933594	681.027649
509.085938	732.316406
507.238281	694.262268
505.390625	672.461304
503.542969	681.782959
501.695313	634.297729
499.845703	713.935364
497.996094	674.574951
496.146484	686.590881
494.296875	714.816650
492.447266	670.077881
490.595703	707.749451
488.744141	704.893311
486.892578	743.890686
485.041016	699.184631
483.187500	701.730042
481.333984	732.607117
479.480469	735.143982
477.626953	720.147949
475.773438	726.731201
473.917969	753.531494
472.064453	747.975098
470.208984	793.622559
468.351563	734.175232
466.496094	832.331360
464.638672	829.455322
462.783203	794.271179
460.925781	861.392883
459.066406	877.351013
457.208984	851.596741
455.349609	851.409424
453.490234	872.738037
451.630859	825.490417
449.771484	891.172241
447.912109	856.035889
446.050781	851.816895
444.189453	893.270630
442.328125	833.983398
440.466797	859.310669
438.603516	822.877319
436.740234	856.248230
434.876953	822.515076
433.013672	849.163818
431.150391	865.071167
429.285156	856.835266
427.419922	875.415039
425.554688	767.997437
423.689453	799.988647
421.824219	795.793213
419.957031	826.424683
418.089844	820.886047
416.222656	788.573181
414.355469	817.847229
412.488281	824.358215
410.619141	814.810913
408.750000	799.917053
406.880859	847.885681
405.011719	807.586792
403.140625	847.511841
401.269531	841.979065
399.398438	943.343018
397.527344	901.722534
395.656250	933.577820
393.783203	962.748413
391.910156	955.860962
390.037109	1042.406006
388.164063	1082.208374
386.291016	1039.277832
384.416016	1051.052856
382.541016	1070.823853
380.666016	1075.920410
378.791016	1030.362915
376.914063	1010.145752
375.039063	976.613953
373.162109	976.398254
371.285156	886.954529
369.406250	902.736267
367.529297	817.341614
365.650391	851.764038
363.771484	810.327637
361.892578	788.863892
360.011719	734.159668
358.132813	706.073608
356.251953	695.282288
354.371094	733.673035
352.490234	689.659668
350.607422	650.979858
348.724609	669.431213
346.841797	626.789063
344.958984	641.254578
343.076172	630.493958
341.193359	634.335693
339.308594	575.817566
337.423828	591.607910
335.539063	594.129395
333.652344	591.346191
331.767578	613.750488
329.880859	552.650757
327.994141	520.728271
326.107422	585.524109
324.218750	585.394470
322.330078	530.975647
320.443359	586.459167
318.552734	566.476196
316.664063	545.178772
314.775391	515.953003
312.884766	543.614685
310.994141	564.652222
309.103516	518.254456
307.210938	582.907104
305.320313	566.920044
303.427734	554.903625
301.535156	562.706116
299.642578	496.550751
297.748047	550.573853
295.853516	553.091919
293.960938	547.690369
292.064453	521.180054
290.169922	517.107056
288.275391	520.948975
286.378906	514.240662
284.482422	553.674805
282.585938	473.155182
280.687500	533.663940
278.791016	516.419373
276.892578	542.646912
274.994141	562.278687
273.095703	551.621765
271.195313	513.328735
269.294922	530.322021
267.396484	522.310425
265.494141	509.040985
263.593750	556.270142
261.691406	523.277466
259.791016	557.337646
257.888672	541.443665
255.986328	588.623535
254.082031	541.203247
252.177734	552.902771
250.275391	609.239685
248.371094	592.038940
246.464844	603.719299
244.560547	660.007263
242.654297	634.935425
240.748047	637.417419
238.841797	654.322266
236.935547	597.804871
235.027344	633.060425
233.119141	593.607910
231.210938	580.374939
229.302734	656.214905
227.392578	608.926270
225.484375	603.553955
223.574219	621.744812
221.664063	621.606506
219.751953	621.468262
217.841797	608.249329
215.929688	601.575134
214.017578	606.671204
212.105469	602.614624
210.193359	601.173645
208.279297	610.186096
206.365234	587.842834
204.451172	548.531189
202.537109	545.797607
200.621094	567.868652
198.705078	579.488586
196.789063	621.115173
194.873047	605.321960
192.957031	545.190125
191.039063	588.100403
189.123047	569.717590
187.203125	606.086121
185.285156	621.588501
183.367188	657.929260
181.447266	612.193726
179.527344	638.102295
177.607422	649.677673
175.687500	658.644531
173.765625	697.539063
171.843750	690.878052
169.921875	690.723999
168.000000	708.777100
166.078125	725.521851
164.154297	746.158875
162.230469	707.003296
160.306641	745.825989
158.382813	798.921021
156.457031	770.169800
154.531250	751.819275
152.605469	729.582275
150.679688	708.653015
148.753906	755.208801
146.826172	764.121460
144.898438	784.703308
142.970703	780.637878
141.042969	703.972961
139.113281	736.219788
137.183594	680.332886
135.253906	624.470825
133.324219	578.996094
131.394531	626.781860
129.462891	594.273987
127.531250	544.953064
125.599609	579.772949
123.667969	592.581848
121.734375	609.265625
119.802734	662.153442
117.869141	585.719666
115.935547	566.198364
114.000000	550.562927
112.066406	443.194519
110.130859	494.768311
108.195313	493.366119
106.257813	525.536926
104.322266	549.947510
102.384766	645.333923
100.447266	667.125977
