#Wave		#Intensity
3501.405273	6281.550781
3500.167969	6158.343750
3498.929688	6116.795898
3497.691406	6410.422363
3496.453125	6070.082031
3495.213867	6125.450195
3493.975586	6213.083496
3492.736328	6137.265625
3491.497070	6081.646973
3490.256836	6145.037109
3489.017578	6240.665039
3487.777344	6096.354004
3486.537109	6234.282227
3485.296875	6192.803223
3484.055664	6044.551758
3482.814453	6130.035156
3481.573242	6088.597656
3480.332031	6210.286621
3479.089844	6048.049316
3477.848633	6195.867676
3476.606445	5904.889160
3475.363281	6084.873535
3474.121094	5902.663086
3472.877930	5996.087402
3471.634766	5940.658203
3470.391602	5800.801270
3469.147461	6034.912109
3467.904297	6037.793457
3466.660156	6038.664063
3465.416016	5943.094727
3464.170898	5943.982422
3462.926758	5970.978516
3461.681641	5973.868164
3460.436523	6030.962402
3459.190430	5987.671875
3457.945313	5986.541992
3456.699219	5901.138672
3455.453125	6020.393066
3454.206055	5884.871094
3452.959961	5935.899902
3451.712891	5936.784668
3450.465820	5985.779297
3449.218750	5762.178711
3447.970703	5823.210449
3446.722656	5892.232910
3445.474609	6003.293945
3444.226563	5863.972168
3442.978516	5780.768555
3441.729492	5841.737793
3440.480469	5822.620117
3439.231445	5837.529785
3437.981445	5858.436523
3436.731445	5739.302734
3435.481445	5862.223145
3434.231445	5721.136719
3432.981445	5766.040039
3431.730469	5684.992676
3430.479492	5771.854980
3429.228516	5748.784180
3427.977539	5845.590332
3426.725586	5692.680664
3425.473633	5707.581055
3424.221680	5724.472168
3422.969727	5767.308594
3421.716797	5752.246582
3420.463867	5743.176758
3419.210938	5728.124512
3417.958008	5695.124512
3416.704102	5574.382813
3415.450195	5651.096191
3414.196289	5663.982910
3412.942383	5631.019043
3411.687500	5616.003418
3410.433594	5684.679199
3409.178711	5731.415527
3407.922852	5592.898926
3406.667969	5645.607910
3405.412109	5548.970703
3404.156250	5470.285645
3402.900391	5556.822266
3401.643555	5585.618652
3400.386719	5612.414551
3399.129883	5593.450195
3397.873047	5459.144043
3396.616211	5497.878418
3395.358398	5612.142090
3394.100586	5545.487305
3392.842773	5494.755859
3391.583984	5487.754883
3390.326172	5421.161133
3389.067383	5533.343262
3387.808594	5548.181152
3386.548828	5364.476074
3385.289063	5546.079590
3384.030273	5423.967285
3382.769531	5418.971191
3381.509766	5507.218262
3380.249023	5405.016602
3378.988281	5427.790039
3377.727539	5363.313477
3376.466797	5265.161133
3375.205078	5424.704590
3373.943359	5304.779297
3372.681641	5315.661133
3371.419922	5453.313965
3370.157227	5315.626465
3368.894531	5423.524902
3367.631836	5388.840820
3366.369141	5328.438477
3365.105469	5361.070801
3363.842773	5360.054199
3362.578125	5291.777344
3361.314453	5338.242188
3360.050781	5325.364746
3358.786133	5308.537598
3357.521484	5246.251953
3356.255859	5361.861816
3354.991211	5210.669922
3353.725586	5276.851563
3352.459961	5206.717285
3351.194336	5180.055664
3349.927734	5281.746094
3348.661133	5276.795410
3347.394531	5228.424316
3346.127930	5233.351563
3344.860352	5265.898926
3343.593750	5197.830566
3342.326172	5350.678223
3341.057617	5144.588379
3339.790039	5159.383301
3338.521484	5118.981445
3337.252930	5216.546387
3335.984375	5160.385254
3334.714844	5285.484375
3333.446289	5377.052734
3332.176758	5068.829102
3330.906250	5089.523926
3329.636719	5053.124023
3328.366211	5052.164063
3327.095703	5188.946289
3325.825195	5146.645508
3324.554688	5167.304199
3323.283203	4977.526367
3322.011719	5059.162598
3320.740234	5068.030762
3319.467773	4990.412598
3318.195313	4961.952148
3316.922852	5078.894043
3315.650391	5079.892578
3314.377930	5004.294434
3313.104492	5085.815430
3311.831055	4898.338867
3310.557617	4997.514160
3309.283203	4988.713867
3308.009766	4958.333008
3306.735352	5086.866211
3305.460938	4954.485352
3304.185547	4984.918945
3302.911133	4966.324707
3301.635742	5016.347168
3300.359375	4935.036621
3299.083984	5000.721191
3297.807617	4997.810547
3296.531250	4949.848633
3295.254883	4882.320313
3293.978516	4934.258301
3292.701172	4913.742188
3291.423828	4863.874512
3290.146484	4909.914551
3288.869141	4952.023926
3287.590820	4833.710449
3286.312500	4934.491699
3285.034180	4845.557617
3283.754883	4930.657227
3282.476563	4802.663574
3281.197266	4791.977539
3279.917969	4863.360352
3278.637695	4797.966309
3277.357422	4867.367188
3276.078125	4790.279785
3274.796875	4836.225586
3273.516602	4807.975098
3272.235352	4828.527832
3270.954102	4769.067383
3269.672852	4805.226563
3268.391602	4767.249512
3267.109375	4865.802246
3265.827148	4732.284668
3264.544922	4805.462891
3263.262695	4753.870117
3261.979492	4848.451660
3260.696289	4810.508301
3259.413086	4719.983398
3258.128906	4746.349609
3256.845703	4755.180664
3255.561523	4764.008301
3254.277344	4634.630371
3252.992188	4799.167480
3251.707031	4737.933594
3250.422852	4651.432129
3249.136719	4658.324707
3247.851563	4637.989258
3246.565430	4574.887695
3245.279297	4616.780273
3243.993164	4621.729980
3242.707031	4537.291992
3241.419922	4643.279297
3240.132813	4547.214355
3238.845703	4641.506836
3237.557617	4679.454590
3236.270508	4573.729980
3234.982422	4559.270508
3233.694336	4537.053223
3232.405273	4431.416016
3231.116211	4562.478516
3229.827148	4518.938965
3228.538086	4479.293945
3227.249023	4524.967773
3225.958984	4560.931641
3224.668945	4563.936523
3223.378906	4605.691895
3222.087891	4418.836914
3220.797852	4512.899414
3219.506836	4552.703125
3218.215820	4441.474121
3216.923828	4425.139160
3215.631836	4538.480957
3214.339844	4396.357422
3213.047852	4430.340820
3211.755859	4541.681641
3210.462891	4552.416992
3209.169922	4437.467773
3207.876953	4355.426270
3206.583008	4366.190430
3205.289063	4367.287598
3203.995117	4426.346191
3202.701172	4394.592773
3201.407227	4409.202637
3200.112305	4392.911621
3198.817383	4276.236328
3197.521484	4242.604980
3196.226563	4359.513184
3194.930664	4420.422363
3193.634766	4392.569336
3192.338867	4198.854980
3191.041992	4165.269043
3189.745117	4293.647949
3188.448242	4333.306152
3187.151367	4159.023438
3185.854492	4362.477539
3184.556641	4276.875488
3183.258789	4383.921387
3181.959961	4250.202637
3180.662109	4262.866699
3179.363281	4319.801758
3178.064453	4299.728027
3176.764648	4258.493652
3175.465820	4274.993652
3174.166016	4281.869141
3172.866211	4263.740234
3171.565430	4278.305664
3170.265625	4298.633301
3168.964844	4124.820801
3167.664063	4208.586426
3166.362305	4261.578125
3165.061523	4231.946777
3163.759766	4183.120117
3162.458008	4141.992676
3161.155273	4267.911621
3159.853516	4207.588379
3158.550781	4208.700684
3157.248047	4042.878418
3155.944336	4097.737305
3154.640625	4137.230957
3153.337891	4228.486328
3152.033203	4066.620850
3150.729492	4123.349121
3149.424805	4095.726318
3148.120117	4121.767578
3146.815430	4090.323730
3145.509766	4114.439941
3144.205078	4165.358887
3142.899414	4019.039307
3141.592773	4085.271240
3140.287109	4124.681152
3138.980469	4104.753418
3137.673828	4038.914551
3136.367188	3917.626221
3135.059570	4066.052246
3133.752930	4028.940430
3132.445313	4091.256592
3131.136719	4073.268066
3129.829102	4011.332031
3128.520508	4213.096191
3127.211914	4063.281006
3125.902344	3984.192139
3124.593750	3977.697998
3123.284180	4011.300293
3121.974609	4037.253906
3120.664063	3967.772461
3119.354492	3879.236084
3118.043945	3960.524902
3116.733398	3936.875244
3115.421875	4006.678955
3114.111328	3876.255615
3112.799805	3932.699707
3111.488281	3901.448975
3110.175781	3898.793701
3108.864258	3873.276611
3107.551758	3965.869141
3106.238281	3906.068115
3104.925781	3844.385986
3103.612305	4001.656982
3102.298828	3911.429199
3100.985352	3863.101807
3099.671875	3879.482910
3098.357422	3924.391357
3097.042969	3858.971680
3095.727539	3768.856934
3094.413086	3893.609619
3093.097656	3852.943604
3091.782227	3802.790771
3090.466797	3796.358887
3089.150391	3907.711670
3087.833984	3781.602783
3086.517578	3887.218018
3085.201172	3797.235107
3083.883789	3809.791992
3082.566406	3784.386230
3081.249023	3732.424561
3079.931641	3832.255371
3078.613281	3799.272217
3077.294922	3728.373047
3075.976563	3792.121094
3074.658203	3649.213867
3073.338867	3716.743164
3072.019531	3759.611572
3070.700195	3768.360352
3069.379883	3786.576904
3068.060547	3653.276611
3066.740234	3766.183350
3065.418945	3676.480225
3064.098633	3651.165771
3062.777344	3701.557373
3061.456055	3697.060059
3060.134766	3715.264404
3058.812500	3616.199951
3057.491211	3668.449707
3056.167969	3654.508545
3054.845703	3629.231201
3053.523438	3622.862061
3052.200195	3684.516846
3050.876953	3642.245605
3049.552734	3516.884766
3048.229492	3561.528320
3046.905273	3679.788086
3045.580078	3533.727539
3044.255859	3667.044922
3042.930664	3600.294678
3041.605469	3488.291748
3040.280273	3647.947510
3038.955078	3681.189209
3037.628906	3646.540039
3036.302734	3551.580078
3034.976563	3552.779541
3033.649414	3565.284912
3032.322266	3643.726318
3030.995117	3562.025146
3029.667969	3491.655273
3028.339844	3534.289063
3027.012695	3494.072754
3025.684570	3515.984863
3024.355469	3564.234131
3023.027344	3492.049316
3021.698242	3489.493896
3020.369141	3511.389404
3019.039063	3572.764404
3017.708984	3521.313477
3016.378906	3468.002441
3015.048828	3489.884277
3013.718750	3530.547119
3012.387695	3481.021729
3011.056641	3420.246094
3009.725586	3370.760742
3008.393555	3443.332031
3007.062500	3333.792725
3005.730469	3532.086426
3004.397461	3420.695557
3003.065430	3468.811768
3001.732422	3470.016846
3000.399414	3448.717529
2999.065430	3414.301514
2997.732422	3319.911621
2996.398438	3354.880127
2995.064453	3474.159424
2993.729492	3370.444580
2992.395508	3457.830566
2991.060547	3417.833496
2989.724609	3396.575684
2988.389648	3345.373047
2987.053711	3284.831543
2985.717773	3312.266113
2984.381836	3317.238281
2983.044922	3376.456055
2981.708984	3244.885254
2980.372070	3446.205322
2979.034180	3266.063721
2977.697266	3282.254150
2976.359375	3287.225342
2975.021484	3325.826416
2973.682617	3297.161377
2972.344727	3259.168701
2971.005859	3286.548096
2969.666016	3257.906738
2968.327148	3247.942871
2966.987305	3282.773193
2965.647461	3183.244141
2964.307617	3249.787354
2962.967773	3262.214355
2961.626953	3289.554688
2960.286133	3274.001709
2958.944336	3176.434082
2957.603516	3228.003662
2956.261719	3303.776855
2954.919922	3208.122559
2953.577148	3322.985840
2952.235352	3191.980957
2950.892578	3236.048828
2949.549805	3188.882080
2948.206055	3221.765869
2946.863281	3187.645996
2945.519531	3188.888672
2944.174805	3104.564209
2942.831055	3152.316406
2941.486328	3023.405762
2940.141602	3186.416016
2938.796875	3109.591797
2937.451172	3116.422119
2936.105469	3162.266846
2934.759766	3117.070801
2933.414063	3094.179199
2932.067383	3152.999268
2930.720703	3113.400635
2929.374023	3205.604980
2928.027344	3065.797119
2926.679688	3093.033936
2925.332031	3161.072021
2923.984375	3093.688232
2922.635742	3150.573242
2921.287109	3092.487549
2919.938477	3125.252930
2918.589844	3080.167236
2917.240234	3059.187012
2915.890625	3062.298096
2914.541016	2945.014160
2913.191406	3057.405273
2911.840820	2995.712402
2910.490234	3052.515625
2909.139648	3055.624268
2907.789063	3042.077881
2906.437500	3035.936768
2905.085938	3027.948242
2903.734375	2995.921143
2902.381836	3017.526855
2901.029297	3037.275146
2899.676758	2992.326904
2898.324219	3036.094727
2896.970703	2980.078613
2895.617188	2990.582520
2894.263672	3019.550293
2892.910156	3013.423828
2891.555664	2946.378418
2890.201172	2967.954346
2888.846680	2923.088135
2887.491211	2987.095703
2886.135742	2927.485352
2884.780273	2936.137695
2883.424805	2974.289551
2882.068359	2981.085449
2880.712891	2986.035156
2879.355469	2887.781982
2877.999023	2995.928711
2876.641602	2941.923096
2875.284180	2989.237549
2873.926758	2900.266846
2872.569336	2910.748779
2871.210938	2869.686523
2869.852539	2900.414063
2868.494141	2967.929932
2867.134766	2845.935303
2865.775391	2850.899170
2864.416016	2791.498291
2863.056641	2963.780762
2861.696289	2840.043213
2860.335938	2907.490967
2858.975586	2903.249756
2857.614258	2887.987061
2856.253906	2916.813232
2854.892578	2828.096680
2853.530273	2858.758789
2852.168945	2964.673096
2850.806641	2898.022949
2849.444336	2930.488281
2848.082031	2851.027832
2846.718750	2828.460693
2845.355469	2868.255859
2843.992188	2785.186523
2842.627930	3024.793945
2841.264648	2802.429199
2839.900391	2781.725586
2838.535156	2839.811768
2837.170898	2802.622314
2835.805664	2723.324951
2834.440430	2812.516113
2833.075195	2813.798340
2831.708984	2769.321045
2830.342773	2783.420898
2828.976563	2768.240967
2827.609375	2784.164551
2826.243164	2772.647949
2824.875977	2790.392578
2823.507813	2826.412354
2822.140625	2756.402588
2820.772461	2721.142090
2819.404297	2755.326904
2818.035156	2765.749756
2816.666992	2765.209961
2815.297852	2702.583984
2813.928711	2674.670654
2812.558594	2712.480957
2811.189453	2748.451416
2809.819336	2764.336670
2808.448242	2725.486816
2807.078125	2737.722168
2805.707031	2686.127441
2804.335938	2665.547363
2802.963867	2675.964111
2801.592773	2629.878662
2800.220703	2678.562988
2798.848633	2690.792236
2797.475586	2710.302490
2796.102539	2560.444092
2794.729492	2674.649658
2793.356445	2752.403076
2791.982422	2648.124268
2790.609375	2611.213379
2789.234375	2628.895996
2787.860352	2612.011719
2786.485352	2655.147461
2785.110352	2641.900635
2783.735352	2630.476807
2782.360352	2649.955322
2780.984375	2638.534180
2779.608398	2667.087158
2778.231445	2579.375488
2776.855469	2604.296387
2775.478516	2585.629639
2774.101563	2536.108154
2772.723633	2622.733887
2771.346680	2624.035645
2769.968750	2641.665527
2768.589844	2613.938965
2767.211914	2598.918457
2765.833008	2603.849854
2764.454102	2666.791992
2763.075195	2597.393066
2761.695313	2575.138184
2760.315430	2661.602783
2758.935547	2554.203613
2757.554688	2539.214600
2756.174805	2516.988037
2754.793945	2585.291504
2753.412109	2539.533447
2752.031250	2499.222168
2750.649414	2524.063721
2749.267578	2572.412842
2747.884766	2504.988525
2746.502930	2488.223145
2745.120117	2570.901367
2743.736328	2528.822998
2742.353516	2573.508545
2740.969727	2491.694336
2739.585938	2467.721191
2738.202148	2553.934082
2736.817383	2441.472656
2735.432617	2422.939453
2734.047852	2465.787109
2732.662109	2508.618164
2731.277344	2546.018799
2729.891602	2439.080566
2728.504883	2525.179932
2727.119141	2443.534180
2725.732422	2423.222168
2724.345703	2321.799072
2722.958008	2442.096924
2721.571289	2432.608154
2720.183594	2437.535645
2718.794922	2568.546875
2717.407227	2474.397705
2716.018555	2463.109131
2714.629883	2406.820801
2713.241211	2390.150146
2711.851563	2330.299072
2710.461914	2342.435303
2709.072266	2410.328125
2707.681641	2316.338379
2706.291016	2405.785889
2704.900391	2423.290527
2703.509766	2381.476074
2702.119141	2413.354248
2700.727539	2405.693848
2699.334961	2460.906006
2697.943359	2376.014160
2696.550781	2411.458984
2695.158203	2346.357422
2693.765625	2433.845215
2692.372070	2447.723145
2690.979492	2334.209961
2689.584961	2418.060547
2688.191406	2379.922607
2686.796875	2309.523926
2685.402344	2371.816406
2684.007813	2432.291992
2682.613281	2406.725342
2681.217773	2366.834717
2679.822266	2291.133057
2678.425781	2322.920410
2677.030273	2320.673096
2675.633789	2338.119873
2674.237305	2291.121582
2672.839844	2347.937988
2671.442383	2317.059082
2670.044922	2325.547852
2668.647461	2342.975830
2667.249023	2328.209473
2665.850586	2384.961914
2664.452148	2302.269043
2663.053711	2376.875244
2661.654297	2304.936768
2660.254883	2325.920166
2658.855469	2252.233643
2657.455078	2291.076172
2656.054688	2335.259521
2654.654297	2290.174316
2653.252930	2243.322266
2651.852539	2323.174805
2650.451172	2297.741943
2649.048828	2288.371582
2647.647461	2327.152588
2646.245117	2276.772949
2644.842773	2294.150146
2643.439453	2279.440674
2642.037109	2225.536133
2640.633789	2230.442383
2639.229492	2288.781006
2637.826172	2226.001953
2636.421875	2362.658203
2635.017578	2308.789551
2633.613281	2196.210449
2632.208008	2249.159668
2630.802734	2197.124023
2629.397461	2223.371582
2627.991211	2206.928223
2626.584961	2295.392822
2625.178711	2286.052246
2623.772461	2283.824219
2622.365234	2226.511719
2620.958008	2277.593994
2619.550781	2213.199951
2618.142578	2209.211914
2616.735352	2182.143066
2615.326172	2266.921875
2613.917969	2296.646973
2612.508789	2250.057129
2611.099609	2304.611816
2609.690430	2187.086670
2608.281250	2179.561523
2606.871094	2136.577148
2605.460938	2173.383057
2604.049805	2197.767822
2602.639648	2199.105957
2601.228516	2257.137939
2599.817383	2168.125000
2598.405273	2103.941406
2596.993164	2123.002930
2595.581055	2156.219482
2594.168945	2178.802979
2592.755859	2185.451172
2591.342773	2096.557373
2589.929688	2163.361328
2588.516602	2115.183350
2587.102539	2171.347900
2585.688477	2206.275879
2584.273438	2170.489990
2582.859375	2177.129883
2581.444336	2113.094727
2580.028320	2095.012695
2578.613281	2142.283447
2577.197266	2104.779297
2575.781250	2088.474609
2574.365234	2096.887207
2572.948242	2160.002197
2571.531250	2108.408691
2570.114258	2127.395996
2568.696289	2074.065674
2567.278320	2167.111084
2565.860352	2124.371582
2564.442383	2079.885986
2563.023438	2155.252197
2561.604492	2091.396729
2560.185547	2092.744629
2558.766602	2067.673584
2557.346680	2040.851440
2555.926758	2102.066162
2554.505859	2091.089111
2553.084961	2085.395752
2551.665039	2086.742676
2550.243164	2132.067139
2548.822266	2159.785645
2547.400391	2074.953369
2545.978516	2067.510254
2544.555664	2077.647461
2543.133789	2186.194336
2541.710938	2122.508057
2540.287109	2039.522949
2538.864258	2095.322266
2537.440430	2022.911377
2536.016602	2083.958496
2534.591797	2051.950195
2533.167969	2065.583496
2531.743164	2045.873657
2530.317383	2106.867432
2528.892578	2088.910889
2527.466797	2070.961426
2526.041016	2100.355713
2524.614258	2099.939453
2523.187500	1962.826538
2521.760742	2176.203125
2520.333984	2060.150879
2518.906250	2110.535645
2517.479492	2108.365967
2516.050781	2015.156372
2514.623047	2055.016846
2513.194336	2023.107788
2511.765625	2005.209106
2510.336914	2080.035645
2508.907227	1943.197021
2507.477539	2052.979980
2506.047852	2003.618774
2504.617188	1978.749146
2503.186523	1974.861328
2501.755859	2070.572021
2500.325195	2031.727783
2498.893555	1950.979858
2497.461914	1926.144897
2496.030273	2063.691162
2494.597656	1982.984741
2493.166016	1954.667236
2491.732422	1999.646484
2490.299805	1974.825928
2488.866211	1965.712769
2487.432617	2005.431152
2485.999023	1989.341431
2484.564453	1917.476807
2483.130859	1981.580078
2481.695313	2036.945557
2480.260742	1991.245728
2478.825195	1969.948975
2477.389648	1967.816162
2475.954102	1990.059326
2474.517578	1937.441772
2473.081055	1952.720337
2471.644531	1987.133301
2470.207031	2068.504395
2468.770508	1960.253174
2467.332031	1970.297729
2465.894531	1924.700806
2464.456055	2004.280884
2463.017578	1983.026733
2461.579102	1972.206665
2460.140625	1930.119751
2458.701172	1943.631470
2457.261719	1931.088867
2455.821289	1953.276001
2454.380859	1956.359375
2452.940430	1985.474609
2451.500000	1948.640259
2450.058594	2019.382080
2448.617188	1954.803101
2447.175781	1957.882568
2445.734375	1865.600098
2444.291992	1991.773193
2442.849609	1908.186035
2441.407227	1947.660645
2439.963867	1917.821289
2438.520508	2000.580566
2437.077148	2003.645874
2435.632813	1954.767334
2434.188477	1949.184937
2432.744141	1919.374512
2431.299805	1887.845459
2429.854492	1928.990356
2428.409180	1902.660889
2426.963867	1905.740601
2425.517578	1900.173950
2424.071289	1920.539307
2422.625000	1942.624878
2421.177734	1968.157349
2419.730469	1955.671875
2418.283203	1891.372803
2416.835938	1859.911011
2415.387695	1961.409302
2413.939453	1898.873413
2412.491211	1889.865479
2411.041992	1879.135376
2409.593750	1933.967651
2408.143555	1962.904907
2406.693359	1821.102295
2405.244141	1922.466064
2403.794922	1861.748291
2402.343750	1880.335449
2400.892578	1890.299316
2399.441406	1924.378540
2397.990234	1856.818481
2396.539063	1856.448120
2395.085938	1881.904419
2393.634766	1845.378784
2392.181641	1869.105835
2390.728516	1844.642456
2389.275391	1864.919189
2387.822266	1794.024414
2386.369141	1812.583252
2384.914063	1829.415283
2383.460938	1844.521362
2382.005859	1787.436401
2380.550781	1785.361206
2379.095703	1845.134766
2377.640625	1815.566162
2376.183594	1782.574585
2374.728516	1794.237427
2373.271484	1749.246582
2371.814453	1790.088135
2370.357422	1784.582764
2368.900391	1736.189331
2367.443359	1785.585083
2365.986328	1733.780762
2364.527344	1766.011230
2363.068359	1763.944092
2361.611328	1868.138794
2360.152344	1816.359009
2358.693359	1718.343384
2357.232422	1752.257202
2355.773438	1765.607056
2354.312500	1804.634155
2352.851563	1780.307617
2351.392578	1735.452881
2349.931641	1721.416626
2348.468750	1640.664429
2347.007813	1732.701416
2345.546875	1703.282715
2344.083984	1740.557251
2342.621094	1748.756226
2341.158203	1673.206177
2339.695313	1691.667725
2338.232422	1679.370361
2336.769531	1730.276367
2335.304688	1678.698242
2333.839844	1722.754395
2332.375000	1713.874390
2330.910156	1710.117920
2329.445313	1680.767456
2327.980469	1682.136963
2326.515625	1620.395752
2325.048828	1664.410034
2323.582031	1628.271851
2322.115234	1738.748413
2320.648438	1588.420532
2319.181641	1589.806396
2317.714844	1645.707764
2316.246094	1604.499146
2314.779297	1653.563232
2313.310547	1643.016357
2311.841797	1671.625610
2310.373047	1603.213623
2308.904297	1602.892456
2307.433594	1585.558716
2305.964844	1585.240967
2304.494141	1566.217041
2303.023438	1543.800293
2301.552734	1633.584351
2300.082031	1556.777588
2298.611328	1547.969482
2297.138672	1596.926025
2295.667969	1627.179077
2294.195313	1538.547607
2292.722656	1570.497925
2291.250000	1573.577881
2289.777344	1615.691162
2288.302734	1593.308472
2286.830078	1618.435913
2285.355469	1563.834839
2283.880859	1553.346313
2282.408203	1519.125610
2280.931641	1508.650024
2279.457031	1562.579956
2277.982422	1577.516235
2276.505859	1578.893677
2275.029297	1549.782959
2273.554688	1486.815674
2272.078125	1498.368652
2270.599609	1526.844238
2269.123047	1536.692017
2267.646484	1619.293945
2266.167969	1612.201904
2264.689453	1510.395752
2263.210938	1533.766846
2261.732422	1596.014282
2260.253906	1502.724243
2258.775391	1539.602661
2257.294922	1576.466187
2255.814453	1459.585327
2254.333984	1488.004883
2252.853516	1546.808838
2251.373047	1521.173218
2249.892578	1563.066772
2248.412109	1466.557251
2246.929688	1550.627319
2245.447266	1518.263428
2243.964844	1519.644775
2242.482422	1429.966309
2241.000000	1461.711670
2239.517578	1490.072876
2238.033203	1536.960571
2236.548828	1492.843384
2235.066406	1586.880005
2233.582031	1515.822388
2232.095703	1476.787476
2230.611328	1540.465942
2229.126953	1538.472778
2227.640625	1428.775269
2226.154297	1504.202637
2224.667969	1458.480103
2223.181641	1493.505859
2221.695313	1481.434448
2220.208984	1462.643066
2218.720703	1548.072510
2217.234375	1529.275024
2215.746094	1545.768921
2214.257813	1441.307251
2212.769531	1523.312866
2211.279297	1543.156128
2209.791016	1480.728516
2208.300781	1537.499023
2206.812500	1443.212646
2205.322266	1471.444824
2203.832031	1399.016724
2202.341797	1425.569092
2200.849609	1552.718872
2199.359375	1453.494507
2197.867188	1443.144775
2196.375000	1451.232910
2194.882813	1479.422974
2193.390625	1474.099487
2191.898438	1477.151855
2190.404297	1491.923950
2188.912109	1428.007324
2187.417969	1469.563477
2185.923828	1472.613892
2184.429688	1437.182129
2182.935547	1423.510254
2181.439453	1426.567871
2179.945313	1518.244263
2178.449219	1427.664063
2176.953125	1462.475464
2175.458984	1415.390625
2173.960938	1385.031982
2172.464844	1443.216064
2170.968750	1451.275024
2169.470703	1405.899780
2167.972656	1423.979248
2166.474609	1388.641846
2164.976563	1426.741699
2163.478516	1489.851563
2161.980469	1536.255615
2160.480469	1374.179199
2158.982422	1383.905762
2157.482422	1420.300781
2155.982422	1408.347046
2154.482422	1418.060669
2152.980469	1406.112183
2151.480469	1372.514648
2149.978516	1405.544067
2148.476563	1480.185059
2146.974609	1483.215332
2145.472656	1427.992798
2143.970703	1377.784424
2142.468750	1434.070190
2140.964844	1440.433594
2139.462891	1363.645264
2137.958984	1418.236938
2136.455078	1432.911011
2134.949219	1416.001465
2133.445313	1420.700073
2131.941406	1397.154541
2130.435547	1393.550049
2128.929688	1381.643799
2127.423828	1407.929077
2125.917969	1396.024536
2124.412109	1374.166992
2122.906250	1390.481934
2121.398438	1405.131104
2119.890625	1353.429688
2118.382813	1399.587646
2116.875000	1399.304321
2115.367188	1407.309204
2113.859375	1387.137085
2112.349609	1370.286865
2110.841797	1406.454712
2109.332031	1389.607300
2107.822266	1331.368408
2106.312500	1352.621582
2104.800781	1393.729126
2103.291016	1310.700562
2101.779297	1358.418213
2100.269531	1478.903687
2098.757813	1409.139526
2097.246094	1317.906860
2095.732422	1393.689331
2094.220703	1362.001587
2092.707031	1369.988525
2091.195313	1348.231689
2089.681641	1326.483643
2088.167969	1308.047363
2086.654297	1329.248413
2085.138672	1357.044312
2083.625000	1409.587524
2082.109375	1364.745361
2080.593750	1336.420288
2079.078125	1375.738892
2077.562500	1349.072144
2076.046875	1307.576172
2074.531250	1358.416382
2073.013672	1328.472778
2071.496094	1402.358521
2069.978516	1347.704590
2068.460938	1319.428223
2066.943359	1396.564453
2065.425781	1304.073853
2063.906250	1269.238525
2062.386719	1341.400024
2060.869141	1332.900024
2059.349609	1317.822510
2057.828125	1361.966919
2056.308594	1345.244873
2054.789063	1328.529541
2053.267578	1379.220337
2051.746094	1377.296631
2050.224609	1275.137451
2048.703125	1289.664429
2047.181641	1287.759888
2045.658203	1271.076172
2044.136719	1326.642090
2042.613281	1342.787964
2041.089844	1306.408447
2039.566406	1311.065674
2038.042969	1356.734619
2036.517578	1279.368774
2034.994141	1323.385620
2033.468750	1290.325562
2031.943359	1298.259399
2030.417969	1317.662109
2028.892578	1323.948364
2027.367188	1274.532715
2025.839844	1313.582764
2024.314453	1288.752441
2022.787109	1331.057983
2021.259766	1260.401245
2019.732422	1212.684937
2018.203125	1271.342041
2016.675781	1333.247192
2015.146484	1298.629272
2013.619141	1255.849365
2012.089844	1334.068359
2010.560547	1265.145630
2009.029297	1279.596191
2007.500000	1254.827393
2005.968750	1259.472656
2004.439453	1260.849487
2002.908203	1286.719116
2001.376953	1232.582642
1999.843750	1227.435059
1998.312500	1295.724731
1996.781250	1264.461182
1995.248047	1231.579102
1993.714844	1208.495605
1992.181641	1278.363892
1990.648438	1250.389526
1989.115234	1246.875000
1987.580078	1311.803711
1986.044922	1265.917847
1984.511719	1177.698975
1982.976563	1240.973389
1981.441406	1247.233398
1979.904297	1201.397705
1978.369141	1230.449219
1976.832031	1251.352661
1975.294922	1218.559204
1973.759766	1221.563965
1972.220703	1245.708740
1970.683594	1229.195435
1969.146484	1261.456543
1967.607422	1220.567871
1966.068359	1169.946289
1964.531250	1220.070068
1962.992188	1240.936646
1961.451172	1276.409912
1959.912109	1227.441528
1958.371094	1227.191040
1956.832031	1150.662598
1955.291016	1231.558105
1953.750000	1182.638550
1952.208984	1201.860474
1950.666016	1178.912598
1949.125000	1224.067871
1947.582031	1217.334106
1946.039063	1268.945435
1944.496094	1234.660278
1942.953125	1195.529175
1941.410156	1216.340210
1939.865234	1178.848022
1938.322266	1232.033081
1936.777344	1260.916870
1935.232422	1218.583374
1933.687500	1234.514160
1932.142578	1209.997314
1930.595703	1195.194214
1929.050781	1183.631104
1927.503906	1186.622559
1925.957031	1246.183960
1924.410156	1233.001343
1922.863281	1185.895142
1921.314453	1251.881226
1919.767578	1138.575317
1918.218750	1193.241333
1916.669922	1086.450806
1915.121094	1221.805542
1913.572266	1198.964111
1912.021484	1163.225220
1910.472656	1164.600342
1908.921875	1196.615967
1907.371094	1268.927368
1905.820313	1210.634644
1904.269531	1223.280518
1902.718750	1118.291138
1901.166016	1166.393555
1899.615234	1174.208374
1898.062500	1238.383423
1896.509766	1201.098755
1894.957031	1170.268066
1893.402344	1174.856689
1891.849609	1179.443359
1890.294922	1129.331177
1888.740234	1161.267944
1887.185547	1191.583618
1885.630859	1152.753662
1884.076172	1131.621216
1882.519531	1189.244507
1880.964844	1156.865723
1879.408203	1146.990234
1877.851563	1169.240601
1876.294922	1157.760620
1874.736328	1146.285278
1873.179688	1144.445313
1871.621094	1165.072998
1870.064453	1131.140625
1868.505859	1203.094482
1866.947266	1167.564331
1865.386719	1181.756104
1863.828125	1162.276123
1862.267578	1184.477173
1860.708984	1136.159912
1859.148438	1206.421631
1857.587891	1119.675659
1856.025391	1180.302856
1854.464844	1199.274780
1852.902344	1144.600220
1851.341797	1177.976196
1849.779297	1161.732666
1848.216797	1179.092651
1846.652344	1150.059204
1845.089844	1202.596802
1843.525391	1152.785034
1841.962891	1179.723633
1840.398438	1134.731445
1838.833984	1164.858398
1837.267578	1103.911987
1835.703125	1103.685425
1834.136719	1076.311401
1832.572266	1122.390991
1831.005859	1142.911743
1829.439453	1136.293335
1827.873047	1099.361328
1826.304688	1127.850220
1824.738281	1135.593262
1823.169922	1071.575684
1821.601563	1165.417969
1820.033203	1080.699097
1818.464844	1101.194092
1816.896484	1145.580078
1815.326172	1100.741455
1813.755859	1157.850342
1812.185547	1135.319946
1810.615234	1079.367065
1809.044922	1157.136475
1807.474609	1185.542480
1805.902344	1072.337402
1804.332031	1119.837158
1802.759766	1195.943726
1801.187500	1186.157593
1799.615234	1088.942139
1798.041016	1163.418457
1796.468750	1077.370850
1794.894531	1127.988037
1793.320313	1054.690063
1791.746094	1089.410400
1790.171875	1054.256104
1788.597656	1084.199829
1787.021484	1053.822144
1785.445313	1096.447632
1783.871094	1088.289673
1782.294922	1035.724365
1780.716797	1073.569702
1779.140625	1101.886719
1777.564453	1161.894409
1775.986328	1079.245728
1774.408203	1044.165161
1772.830078	1017.019653
1771.251953	1092.833374
1769.673828	1091.024780
1768.093750	1074.968384
1766.513672	1076.329712
1764.935547	1104.593140
1763.355469	1023.674011
1761.773438	1080.410034
1760.193359	1099.165771
1758.613281	1124.238525
1757.031250	1030.734741
1755.449219	1033.683350
1753.867188	1060.334106
1752.285156	1056.955688
1750.701172	1015.668701
1749.119141	1111.793701
1747.535156	1102.090820
1745.951172	1079.763062
1744.367188	1065.335815
1742.783203	1036.713013
1741.199219	1060.163452
1739.613281	1078.872314
1738.029297	1070.764893
1736.443359	1054.777466
1734.857422	1067.170288
1733.271484	1057.494141
1731.683594	1085.637939
1730.097656	1064.934326
1728.509766	1003.288635
1726.921875	1103.862061
1725.333984	1111.505981
1723.746094	1084.517700
1722.158203	1022.918640
1720.568359	1080.922974
1718.978516	1077.553589
1717.390625	1121.367920
1715.800781	1095.977539
1714.208984	1076.885986
1712.619141	1009.077332
1711.027344	1021.440369
1709.437500	1065.220703
1707.845703	1085.421021
1706.253906	1064.780518
1704.662109	1086.542480
1703.068359	1056.491211
1701.476563	1026.452393
1699.882813	991.718323
1698.289063	1008.770630
1696.695313	1021.110229
1695.101563	1056.967773
1693.505859	1001.873474
1691.912109	1018.909302
1690.316406	1067.282715
1688.720703	1035.723755
1687.125000	1054.308472
1685.529297	1027.463989
1683.933594	1050.740356
1682.335938	1055.219849
1680.738281	1011.173462
1679.140625	1034.438599
1677.542969	1013.884277
1675.945313	1077.811157
1674.347656	1036.924316
1672.748047	1118.020264
1671.148438	1045.875122
1669.548828	981.574829
1667.949219	1011.062744
1666.349609	1023.352356
1664.748047	1055.943359
1663.148438	990.132324
1661.546875	1053.944580
1659.945313	1028.749023
1658.343750	972.348816
1656.742188	993.993347
1655.138672	1048.391113
1653.537109	998.260803
1651.933594	1044.837646
1650.330078	996.287964
1648.726563	1044.404663
1647.121094	1017.693787
1645.517578	1005.017517
1643.912109	986.114990
1642.306641	982.795471
1640.701172	1021.521667
1639.095703	1029.094238
1637.490234	1008.645569
1635.884766	1006.880127
1634.277344	1016.006714
1632.669922	1001.795715
1631.062500	989.145813
1629.455078	1023.149231
1627.845703	1061.802246
1626.238281	1030.496094
1624.628906	989.879028
1623.019531	985.012634
1621.410156	1070.241089
1619.800781	1028.087769
1618.191406	948.687683
1616.580078	987.299683
1614.968750	1018.135437
1613.359375	1069.130493
1611.746094	964.965332
1610.134766	1046.971558
1608.523438	994.028748
1606.910156	962.813721
1605.298828	956.413330
1603.685547	940.716858
1602.070313	959.114868
1600.457031	1022.430176
1598.843750	974.204468
1597.228516	984.841492
1595.613281	949.028870
1593.998047	1013.841248
1592.382813	995.060181
1590.767578	1036.627930
1589.152344	954.427490
1587.535156	989.799988
1585.917969	913.828369
1584.300781	1018.760864
1582.683594	964.453064
1581.066406	985.886353
1579.447266	945.512451
1577.828125	949.949646
1576.210938	988.359863
1574.591797	989.698242
1572.970703	1000.297974
1571.351563	978.482971
1569.730469	1004.510803
1568.111328	1010.472534
1566.490234	979.414551
1564.869141	919.070129
1563.248047	982.090271
1561.625000	1009.631409
1560.003906	973.975891
1558.380859	927.549683
1556.757813	993.596252
1555.134766	988.768921
1553.511719	894.634094
1551.886719	997.594055
1550.263672	954.289307
1548.638672	952.551636
1547.013672	932.352234
1545.388672	975.227966
1543.761719	939.653198
1542.136719	947.145264
1540.509766	954.634094
1538.882813	949.824341
1537.255859	989.578247
1535.628906	878.758972
1534.001953	926.190857
1532.373047	919.855164
1530.746094	935.016663
1529.117188	997.757141
1527.488281	974.528687
1525.859375	939.034912
1524.228516	964.917908
1522.599609	950.913025
1520.968750	993.650146
1519.337891	978.111938
1517.707031	973.309570
1516.076172	950.119690
1514.443359	940.728638
1512.810547	969.636719
1511.179688	955.650879
1509.546875	937.077332
1507.914063	921.573181
1506.279297	913.728149
1504.646484	973.215637
1503.011719	959.243408
1501.376953	952.924805
1499.742188	940.491760
1498.107422	931.121704
1496.472656	946.213379
1494.835938	1002.562683
1493.201172	935.122253
1491.564453	905.901367
1489.927734	945.422913
1488.289063	920.793030
1486.652344	928.234070
1485.013672	932.619202
1483.376953	914.111572
1481.738281	904.765991
1480.099609	886.271790
1478.458984	1000.469421
1476.820313	908.773010
1475.179688	945.170227
1473.539063	879.434143
1471.898438	947.822632
1470.257813	926.295227
1468.617188	913.915894
1466.974609	930.476318
1465.333984	966.822998
1463.691406	899.642273
1462.048828	902.497925
1460.406250	995.126648
1458.761719	873.215881
1457.119141	879.116943
1455.474609	935.196838
1453.830078	892.431885
1452.185547	918.085205
1450.539063	934.609619
1448.894531	914.662109
1447.248047	899.280029
1445.603516	944.653748
1443.957031	921.679688
1442.308594	891.124634
1440.662109	845.404480
1439.015625	931.722839
1437.367188	945.181946
1435.718750	946.500793
1434.070313	931.137329
1432.421875	877.875488
1430.771484	938.326477
1429.123047	912.365356
1427.472656	874.293152
1425.822266	868.050171
1424.171875	895.131104
1422.521484	941.886292
1420.869141	840.252869
1419.218750	897.595459
1417.566406	885.300537
1415.914063	894.192993
1414.261719	859.213318
1412.607422	874.156921
1410.955078	851.292542
1409.300781	884.372437
1407.646484	822.218201
1405.992188	874.934631
1404.337891	865.686279
1402.683594	885.140808
1401.027344	862.302612
1399.371094	901.377625
1397.714844	845.335815
1396.058594	907.036011
1394.402344	927.970154
1392.744141	924.758118
1391.087891	900.431763
1389.429688	885.163208
1387.771484	886.484924
1386.113281	853.137939
1384.453125	883.098572
1382.794922	887.433105
1381.134766	866.157593
1379.474609	873.505859
1377.814453	835.679077
1376.154297	895.719910
1374.492188	915.097900
1372.832031	860.733521
1371.169922	854.534790
1369.507813	890.454651
1367.845703	894.778931
1366.181641	805.883484
1364.519531	877.867554
1362.855469	840.110901
1361.191406	863.975281
1359.527344	800.699036
1357.863281	833.573181
1356.199219	839.404297
1354.533203	809.201660
1352.867188	882.579773
1351.201172	877.892029
1349.535156	867.204834
1347.869141	901.523193
1346.201172	823.347900
1344.535156	905.641968
1342.867188	842.489502
1341.199219	882.779114
1339.531250	843.633240
1337.861328	843.455627
1336.193359	837.286743
1334.523438	903.001038
1332.853516	863.883667
1331.183594	887.651855
1329.511719	851.547241
1327.841797	857.352905
1326.169922	836.229126
1324.500000	897.373474
1322.828125	861.296997
1321.154297	814.770752
1319.482422	868.407410
1317.808594	848.797668
1316.136719	797.821167
1314.462891	811.096558
1312.789063	863.195190
1311.113281	842.109802
1309.439453	873.280762
1307.763672	808.920288
1306.087891	862.467407
1304.412109	866.760986
1302.736328	923.256287
1301.060547	914.114258
1299.382813	848.321838
1297.707031	857.086365
1296.029297	839.022278
1294.351563	829.905518
1292.671875	814.833984
1290.994141	866.788452
1289.314453	829.380188
1287.636719	780.078064
1285.957031	829.030090
1284.275391	839.271545
1282.595703	883.726990
1280.914063	844.866943
1279.234375	874.431091
1277.552734	820.721130
1275.871094	819.061279
1274.189453	827.805359
1272.505859	851.404480
1270.822266	867.565735
1269.140625	834.707092
1267.457031	831.560852
1265.771484	846.231262
1264.087891	814.882080
1262.404297	893.361267
1260.718750	853.113220
1259.033203	855.899597
1257.347656	829.023804
1255.662109	811.055725
1253.974609	862.768982
1252.287109	847.765442
1250.601563	794.241577
1248.914063	874.073608
1247.224609	808.717346
1245.537109	784.852600
1243.849609	855.752563
1242.160156	845.209900
1240.470703	825.792175
1238.781250	828.576660
1237.091797	801.774109
1235.400391	840.057800
1233.708984	844.315979
1232.019531	844.137268
1230.328125	863.173035
1228.634766	811.270020
1226.943359	830.304565
1225.250000	825.697449
1223.558594	807.801208
1221.865234	785.483032
1220.171875	814.839844
1218.476563	814.667297
1216.783203	832.201111
1215.087891	824.648682
1213.392578	876.095825
1211.697266	853.791199
1210.001953	819.701782
1208.306641	853.429382
1206.609375	839.985596
1204.912109	844.227600
1203.214844	888.239685
1201.517578	942.542114
1199.820313	839.273560
1198.121094	849.400330
1196.423828	896.317322
1194.724609	856.397461
1193.025391	888.581421
1191.326172	948.697754
1189.625000	829.382996
1187.923828	893.896973
1186.224609	884.887878
1184.523438	897.926514
1182.822266	925.652466
1181.119141	910.766296
1179.417969	981.068970
1177.714844	922.126587
1176.011719	943.951477
1174.308594	973.105713
1172.605469	927.409119
1170.900391	969.758362
1169.197266	954.884460
1167.492188	963.480591
1165.787109	954.478943
1164.080078	926.424866
1162.375000	1062.524292
1160.667969	1050.576660
1158.962891	1035.704224
1157.255859	1045.736450
1155.548828	1076.264648
1153.839844	1074.572021
1152.132813	1072.880005
1150.423828	1031.677490
1148.714844	1075.350098
1147.005859	1059.031250
1145.296875	1055.881226
1143.585938	1077.588623
1141.876953	1127.061279
1140.166016	1109.283569
1138.455078	1179.185059
1136.744141	1108.811768
1135.033203	1130.484619
1133.320313	1163.830200
1131.607422	1151.902954
1129.894531	1221.720703
1128.181641	1138.278931
1126.468750	1173.053223
1124.753906	1232.610718
1123.041016	1217.764404
1121.326172	1249.583130
1119.611328	1312.001709
1117.896484	1286.945435
1116.179688	1293.957275
1114.464844	1327.189331
1112.748047	1310.884766
1111.031250	1239.250366
1109.314453	1396.225708
1107.595703	1344.981934
1105.878906	1349.061401
1104.160156	1392.423706
1102.441406	1387.762939
1100.722656	1384.558594
1099.003906	1360.998657
1097.283203	1340.356079
1095.562500	1363.325439
1093.843750	1386.285034
1092.123047	1354.027466
1090.400391	1368.263916
1088.679688	1308.432007
1086.957031	1357.517334
1085.236328	1316.583618
1083.513672	1325.010498
1081.789063	1316.022217
1080.066406	1315.741455
1078.341797	1324.162842
1076.619141	1268.779175
1074.894531	1265.609009
1073.169922	1285.630859
1071.443359	1227.392334
1069.718750	1270.594238
1067.992188	1287.704956
1066.265625	1157.094116
1064.539063	1143.816284
1062.812500	1149.362427
1061.085938	1175.167603
1059.357422	1186.492188
1057.628906	1124.033691
1055.900391	1110.776733
1054.171875	1096.079346
1052.443359	1139.216431
1050.712891	1120.182983
1048.982422	1092.487061
1047.251953	1106.701416
1045.521484	1099.242676
1043.791016	1075.901123
1042.058594	1064.120361
1040.328125	1024.917236
1038.595703	1036.244141
1036.863281	985.520142
1035.128906	1025.702881
1033.396484	1068.752930
1031.662109	1046.894409
1029.927734	1010.628174
1028.193359	991.674072
1026.458984	981.374451
1024.724609	959.553040
1022.988281	1002.561646
1021.251953	973.544128
1019.515625	970.456177
1017.779297	960.171753
1016.042969	902.397156
1014.304688	952.566345
1012.568359	965.309998
1010.830078	996.746155
1009.089844	934.698914
1007.351563	927.310364
1005.613281	1000.418396
1003.873047	921.165039
1002.132813	985.622375
1000.392578	986.847778
998.652344	942.115723
996.910156	966.323364
995.169922	927.356873
993.427734	947.251465
991.685547	942.743774
989.941406	981.276367
988.199219	936.602600
986.455078	909.155945
984.712891	923.298035
982.968750	968.968506
981.222656	899.973083
979.478516	941.330505
977.734375	858.045837
975.988281	922.308960
974.242188	912.088257
972.496094	874.672546
970.748047	956.065430
969.001953	849.971680
967.253906	886.985535
965.505859	849.607117
963.757813	837.984802
962.009766	872.117859
960.259766	930.535889
958.511719	937.481689
956.761719	891.559509
955.011719	961.363464
953.259766	869.754333
951.509766	882.418396
949.757813	929.338318
948.007813	877.757874
946.255859	853.311401
944.501953	837.435181
942.750000	922.835083
940.996094	942.601257
939.244141	899.627319
937.490234	872.351257
935.734375	793.783142
933.980469	840.630920
932.224609	837.601379
930.470703	807.513489
928.714844	835.817566
926.958984	784.389282
925.201172	841.151428
923.445313	865.160950
921.687500	842.212463
919.929688	840.609070
918.171875	826.207886
916.414063	853.043274
914.654297	770.416748
912.894531	828.517273
911.136719	778.610352
909.375000	761.396667
907.615234	792.477539
905.855469	751.129761
904.093750	760.905396
902.332031	766.418823
900.570313	747.807068
898.808594	723.528503
897.044922	738.974976
895.283203	795.538818
893.519531	747.163452
891.755859	718.653381
889.992188	755.344727
888.226563	783.519104
886.462891	767.768372
884.697266	729.364502
882.931641	811.331787
881.166016	785.675659
879.398438	775.599121
877.632813	759.866821
875.865234	762.532532
874.097656	678.917908
872.330078	690.084473
870.562500	721.039429
868.792969	746.326965
867.023438	706.596680
865.253906	755.895508
863.484375	706.292053
861.714844	725.911743
859.943359	687.631897
858.173828	703.011963
856.402344	724.030884
854.628906	711.175171
852.857422	677.163574
851.085938	747.540161
849.312500	719.175903
847.539063	672.495911
845.765625	740.008728
843.992188	741.258301
842.216797	741.098328
840.441406	747.981506
838.667969	729.511841
836.892578	742.026550
835.115234	719.342896
833.339844	722.002441
831.562500	714.810974
829.785156	718.877014
828.007813	700.437317
826.230469	735.440918
824.451172	767.617615
822.673828	761.829468
820.894531	736.369751
819.115234	799.434814
817.335938	698.125244
815.554688	709.209412
813.775391	761.006775
811.994141	819.800537
810.212891	818.219910
808.431641	798.398743
806.648438	779.989014
804.867188	753.171814
803.083984	726.366211
801.300781	744.434448
799.515625	840.987000
797.732422	746.915161
795.947266	774.774414
794.164063	738.187683
792.378906	787.043091
790.591797	837.277527
788.806641	730.709534
787.019531	782.333801
785.234375	775.168335
783.447266	772.202759
781.658203	804.203735
779.871094	771.868469
778.082031	752.129272
776.294922	754.761841
774.505859	742.021790
772.716797	768.406006
770.925781	779.414001
769.136719	738.746765
767.345703	809.792664
765.554688	792.866577
763.763672	724.310913
761.970703	699.038818
760.179688	739.341919
758.386719	810.310486
756.593750	739.021484
754.800781	773.713257
753.005859	767.970459
751.212891	706.491150
749.417969	788.535095
747.623047	715.934937
745.828125	761.734436
744.033203	736.508484
742.236328	723.821045
740.439453	737.580688
738.642578	697.071289
736.845703	751.171326
735.048828	741.273071
733.250000	759.188110
731.451172	724.269592
729.652344	772.757202
727.853516	689.216553
726.054688	737.690613
724.253906	738.919434
722.455078	726.261230
720.654297	712.220154
718.853516	748.154602
717.050781	707.747681
715.250000	722.855774
713.447266	718.537415
711.644531	725.315491
709.841797	719.611816
708.037109	801.243286
706.234375	756.719360
704.429688	799.509521
702.625000	789.638489
700.820313	738.220825
699.013672	736.675659
697.208984	771.126221
695.402344	757.117310
693.595703	780.477783
691.789063	755.404663
689.982422	814.719055
688.173828	777.202942
686.365234	767.355591
684.556641	735.395325
682.748047	808.482483
680.939453	845.613098
679.128906	823.326416
677.318359	810.717163
675.507813	846.442078
673.697266	804.842346
671.886719	797.766113
670.074219	822.431030
668.261719	820.872375
666.449219	846.900696
664.636719	857.748474
662.824219	832.744812
661.009766	873.916016
659.195313	888.885010
657.380859	847.356934
655.566406	869.212646
653.751953	844.233398
651.935547	860.572510
650.119141	865.891479
648.302734	873.960754
646.486328	894.410583
644.669922	884.585632
642.851563	854.133728
641.033203	871.824036
639.214844	930.751160
637.396484	861.822388
635.578125	926.222778
633.757813	888.925049
631.937500	924.445313
630.117188	939.350220
628.296875	917.177063
626.474609	952.667725
624.654297	909.914856
622.832031	967.345459
621.009766	910.889709
619.185547	977.895630
617.363281	954.371460
615.539063	1022.709351
613.714844	1023.856812
611.890625	1000.337769
610.066406	964.498779
608.242188	1019.077332
606.416016	1009.268799
604.589844	1026.847168
602.763672	1047.155396
600.937500	996.291016
599.109375	1020.701660
597.281250	1071.092285
595.453125	1073.593628
593.625000	1037.808350
591.796875	1011.607849
589.966797	1094.757935
588.138672	1016.631592
586.308594	1086.082642
584.478516	1089.942749
582.646484	1092.435669
580.816406	1066.257202
578.984375	1100.147827
577.152344	1131.294189
575.320313	1106.488525
573.486328	1117.158936
571.654297	1032.361938
569.820313	1137.122192
567.986328	1068.715576
566.152344	1108.004761
564.316406	1106.399780
562.482422	1076.187988
560.646484	1124.983154
558.810547	1126.098755
556.974609	1060.506592
555.136719	1133.772339
553.300781	1163.461182
551.462891	1127.834106
549.625000	1137.108398
547.785156	1053.906738
545.947266	1086.306030
544.107422	1061.600952
542.267578	1102.138062
540.427734	1099.179321
538.587891	1071.770752
536.748047	1011.779785
534.906250	1053.649780
533.064453	1023.554016
531.222656	1032.830078
529.378906	1002.751892
527.537109	963.190552
525.693359	1002.312439
523.849609	970.904419
522.005859	963.913025
520.162109	950.147522
518.316406	960.780151
516.470703	928.053711
514.625000	995.576477
512.779297	962.856689
510.933594	923.381470
509.085938	901.520752
507.238281	963.576477
505.390625	906.537354
503.542969	929.335144
501.695313	942.655640
499.845703	920.814392
497.996094	928.723389
496.146484	977.175598
494.296875	912.100586
492.447266	910.549438
490.595703	969.778809
488.744141	925.003662
486.892578	905.899536
485.041016	950.243225
483.187500	954.082947
481.333984	956.571777
479.480469	984.688293
477.626953	991.214905
475.773438	902.009644
473.917969	922.031433
472.064453	885.440796
470.208984	925.668396
468.351563	947.018738
466.496094	907.752930
464.638672	965.453674
462.783203	953.125427
460.925781	904.462524
459.066406	940.595642
457.208984	974.022156
455.349609	917.316345
453.490234	977.627991
451.630859	907.501709
449.771484	955.691467
447.912109	927.260254
446.050781	924.369080
444.189453	937.598328
442.328125	917.247498
440.466797	950.612427
438.603516	904.762329
436.740234	943.483582
434.876953	903.022278
433.013672	937.702209
431.150391	894.577454
429.285156	919.857605
427.419922	920.995605
425.554688	912.750916
423.689453	923.269958
421.824219	917.707703
419.957031	926.881470
418.089844	866.416443
416.222656	919.778870
414.355469	910.206421
412.488281	900.638123
410.619141	858.963196
408.750000	920.305969
406.880859	894.693237
405.011719	929.259644
403.140625	858.205994
401.269531	878.063843
399.398438	885.887268
397.527344	862.981873
395.656250	910.872803
393.783203	889.307129
391.910156	893.115906
390.037109	906.265930
388.164063	884.715393
386.291016	895.193115
384.416016	901.664673
382.541016	900.132080
380.666016	899.933411
378.791016	878.407715
376.914063	856.891418
375.039063	936.643372
373.162109	899.138916
371.285156	902.935669
369.406250	874.775391
367.529297	889.225098
365.650391	849.102234
363.771484	828.955872
361.892578	909.920593
360.011719	903.069580
358.132813	908.188843
356.251953	861.458740
354.371094	846.648010
352.490234	857.091492
350.607422	883.472656
348.724609	879.292603
346.841797	884.409973
344.958984	815.176636
343.076172	808.359619
341.193359	866.571594
339.308594	876.994080
337.423828	902.003113
335.539063	834.168274
333.652344	890.996948
331.767578	880.195068
329.880859	886.626831
327.994141	851.980408
326.107422	902.130981
324.218750	842.332336
322.330078	880.545593
320.443359	861.816956
318.552734	835.155334
316.664063	831.000671
314.775391	792.450928
312.884766	769.790161
310.994141	829.126343
309.103516	830.264771
307.210938	841.976929
305.320313	778.358765
303.427734	837.640259
301.535156	805.752930
299.642578	830.666016
297.748047	785.591003
295.853516	809.177429
293.960938	781.283569
292.064453	806.179810
290.169922	808.639404
288.275391	766.256653
286.378906	803.006592
284.482422	761.962036
282.585938	774.972839
280.687500	802.472412
278.791016	757.502930
276.892578	808.701965
274.994141	784.819885
273.095703	817.558777
271.195313	756.830872
269.294922	761.926636
267.396484	760.441895
265.494141	756.327087
263.593750	761.419434
261.691406	755.991272
259.791016	800.515625
257.888672	776.682556
255.986328	815.926819
254.082031	784.219238
252.177734	760.405518
250.275391	787.809937
248.371094	774.507690
246.464844	773.023193
244.560547	759.729980
242.654297	735.947876
240.748047	773.819519
238.841797	750.044739
236.935547	744.634155
235.027344	741.847229
233.119141	723.336792
231.210938	766.409363
229.302734	798.984192
227.392578	769.997070
225.484375	797.319641
223.574219	770.963562
221.664063	738.075928
219.751953	726.136597
217.841797	749.520142
215.929688	787.278809
214.017578	779.258728
212.105469	763.399048
210.193359	734.477356
208.279297	748.686523
206.365234	734.150391
204.451172	838.469116
202.537109	761.244019
200.621094	797.626953
198.705078	800.059692
196.789063	735.943176
194.873047	755.347839
192.957031	766.918152
191.039063	762.835327
189.123047	765.272766
187.203125	757.281799
185.285156	790.994202
183.367188	777.789612
181.447266	781.523926
179.527344	812.603699
177.607422	757.740295
175.687500	749.761353
173.765625	783.430054
171.843750	813.180420
169.921875	773.975098
168.000000	784.206604
166.078125	743.724915
164.154297	744.858948
162.230469	779.783020
160.306641	756.220825
158.382813	827.500305
156.457031	790.950134
154.531250	790.773621
152.605469	803.579041
150.679688	781.335388
148.753906	777.268127
146.826172	797.851746
144.898438	823.614258
142.970703	818.243408
141.042969	786.945862
139.113281	780.289307
137.183594	813.807678
135.253906	770.871704
133.324219	771.994812
131.394531	833.982483
129.462891	802.723022
127.531250	781.832886
125.599609	825.658752
123.667969	820.298889
121.734375	790.363708
119.802734	785.013977
117.869141	641.317749
115.935547	700.638123
114.000000	704.358704
112.066406	688.695862
110.130859	702.751892
108.195313	718.093140
106.257813	733.427429
104.322266	700.989441
102.384766	689.216614
100.447266	701.966248
