#Wave		#Intensity
3501.405273	5142.388672
3500.167969	4980.805176
3498.929688	5151.517090
3497.691406	5182.851563
3496.453125	5086.999023
3495.213867	5116.314941
3493.975586	5183.959473
3492.736328	5267.718750
3491.497070	5272.777832
3490.256836	5185.063965
3489.017578	5097.383301
3487.777344	5193.190430
3486.537109	4926.151367
3485.296875	5082.411133
3484.055664	5143.913574
3482.814453	5155.031250
3481.573242	5174.200195
3480.332031	5195.375977
3479.089844	5174.263184
3477.848633	5143.093750
3476.606445	5200.488770
3475.363281	5193.471680
3474.121094	5166.338867
3472.877930	5111.056152
3471.634766	5230.755371
3470.391602	5165.427246
3469.147461	5011.670410
3467.904297	5143.379883
3466.660156	5148.438477
3465.416016	5179.613770
3464.170898	5170.601563
3462.926758	5207.785645
3461.681641	5248.971680
3460.436523	5169.683105
3459.190430	5074.366211
3457.945313	5035.277832
3456.699219	5184.815430
3455.453125	5167.788086
3454.206055	5241.025391
3452.959961	5099.660156
3451.712891	5182.907227
3450.465820	5101.744141
3449.218750	5100.780762
3447.970703	5191.995117
3446.722656	5104.865234
3445.474609	5250.127930
3444.226563	5144.994629
3442.978516	5099.971680
3441.729492	5127.035645
3440.480469	5176.106934
3439.231445	5091.078613
3437.981445	5170.149902
3436.731445	5031.142090
3435.481445	5170.196777
3434.231445	5227.211426
3432.981445	5022.292969
3431.730469	5151.274902
3430.479492	5154.298828
3429.228516	5185.295410
3427.977539	5180.319824
3426.725586	5147.381836
3425.473633	5056.541504
3424.221680	5097.515625
3422.969727	5140.470703
3421.716797	5123.531250
3420.463867	5104.602539
3419.210938	5025.825684
3417.958008	5212.385742
3416.704102	5279.209961
3415.450195	5007.022461
3414.196289	5055.916992
3412.942383	5088.846680
3411.687500	5103.827148
3410.433594	5124.779297
3409.178711	5083.966797
3407.922852	5164.667480
3406.667969	5064.120605
3405.412109	5075.108398
3404.156250	5046.278809
3402.900391	5290.126465
3401.643555	4948.854004
3400.386719	5063.309082
3399.129883	5161.807617
3397.873047	5071.336426
3396.616211	5118.097168
3395.358398	4997.848145
3394.100586	5060.505859
3392.842773	5045.636719
3391.583984	5010.904297
3390.326172	5097.361328
3389.067383	5042.770508
3387.808594	5129.188477
3386.548828	5032.918945
3385.289063	5020.055664
3384.030273	5003.227539
3382.769531	5002.279785
3381.509766	5048.944824
3380.249023	5012.285156
3378.988281	5094.626465
3377.727539	5055.988770
3376.466797	5049.083496
3375.205078	4943.081055
3373.943359	4963.941895
3372.681641	5125.462402
3371.419922	4902.634277
3370.157227	4925.470703
3368.894531	4950.278320
3367.631836	4984.975098
3366.369141	4997.885254
3365.105469	5024.643066
3363.842773	5045.455078
3362.578125	4957.455566
3361.314453	4948.604004
3360.050781	4997.102539
3358.786133	4970.452148
3357.521484	4995.206543
3356.255859	4950.779297
3354.991211	5032.831055
3353.725586	4865.924805
3352.459961	5007.218750
3351.194336	5073.413574
3349.927734	4876.976563
3348.661133	4953.041504
3347.394531	4983.681152
3346.127930	4949.187988
3344.860352	4936.410156
3343.593750	4890.103027
3342.326172	4901.008301
3341.057617	4980.923828
3339.790039	4851.831543
3338.521484	4961.292480
3337.252930	4849.988770
3335.984375	4898.326660
3334.714844	4921.036133
3333.446289	5018.582520
3332.176758	4915.228516
3330.906250	4867.041992
3329.636719	4915.329590
3328.366211	4938.013184
3327.095703	4903.623047
3325.825195	4851.539551
3324.554688	4917.495605
3323.283203	4883.128418
3322.011719	4907.761719
3320.740234	4883.238281
3319.467773	4846.930664
3318.195313	4875.486328
3316.922852	4782.215820
3315.650391	4863.810547
3314.377930	4913.950195
3313.104492	4818.761230
3311.831055	4751.093750
3310.557617	4968.071289
3309.283203	4782.649902
3308.009766	4868.074219
3306.735352	4782.792480
3305.460938	4744.615723
3304.185547	4826.076172
3302.911133	4944.757813
3301.635742	4777.193359
3300.359375	4858.600098
3299.083984	4879.230469
3297.807617	4844.996094
3296.531250	4818.609863
3295.254883	4753.065430
3293.978516	4848.104492
3292.701172	4774.748047
3291.423828	4769.924316
3290.146484	4898.172852
3288.869141	4850.283203
3287.590820	4933.475586
3286.312500	4836.701660
3285.034180	4732.142578
3283.754883	4846.589844
3282.476563	4818.301270
3281.197266	4756.799805
3279.917969	4861.406250
3278.637695	4842.898438
3277.357422	4806.817871
3276.078125	4803.949219
3274.796875	4838.178223
3273.516602	4909.483398
3272.235352	4768.024902
3270.954102	4905.661133
3269.672852	4859.854004
3268.391602	4895.988770
3267.109375	4858.001465
3265.827148	4899.972168
3264.544922	4791.816406
3263.262695	4773.360840
3261.979492	4612.654785
3260.696289	4754.005859
3259.413086	4749.203125
3258.128906	4761.930664
3256.845703	4755.180664
3255.561523	4732.858398
3254.277344	4807.869141
3252.992188	4668.776367
3251.707031	4745.716309
3250.422852	4869.315918
3249.136719	4780.861328
3247.851563	4671.048340
3246.565430	4724.597168
3245.279297	4708.144043
3243.993164	4755.833984
3242.707031	4751.040039
3241.419922	4618.022949
3240.132813	4753.111328
3238.845703	4736.667480
3237.557617	4628.970703
3236.270508	4618.380371
3234.982422	4669.903809
3233.694336	4601.092285
3232.405273	4697.223633
3231.116211	4686.627441
3229.827148	4683.792969
3228.538086	4638.299316
3227.249023	4676.187500
3225.958984	4638.465820
3224.668945	4622.075684
3223.378906	4756.825195
3222.087891	4703.610840
3220.797852	4642.669434
3219.506836	4796.701660
3218.215820	4695.106445
3216.923828	4632.265137
3215.631836	4699.118164
3214.339844	4644.039551
3213.047852	4770.838379
3211.755859	4603.578613
3210.462891	4658.781738
3209.169922	4563.147949
3207.876953	4585.473145
3206.583008	4576.865234
3205.289063	4601.111328
3203.995117	4698.766602
3202.701172	4653.438965
3201.407227	4619.716309
3200.112305	4558.973633
3198.817383	4617.949219
3197.521484	4543.717773
3196.226563	4573.726074
3194.930664	4597.934082
3193.634766	4651.068848
3192.338867	4526.739746
3191.041992	4643.503906
3189.745117	4546.215332
3188.448242	4608.957031
3187.151367	4482.802734
3185.854492	4533.970703
3184.556641	4615.943359
3183.258789	4603.502441
3181.959961	4540.996094
3180.662109	4567.082031
3179.363281	4506.531250
3178.064453	4486.421387
3176.764648	4499.032227
3175.465820	4473.159668
3174.166016	4547.321777
3172.866211	4494.524414
3171.565430	4397.521484
3170.265625	4388.989258
3168.964844	4559.214844
3167.664063	4471.863770
3166.362305	4482.534668
3165.061523	4425.966797
3163.759766	4478.895996
3162.458008	4510.682129
3161.155273	4479.099121
3159.853516	4537.745605
3158.550781	4529.199219
3157.248047	4347.965332
3155.944336	4381.663086
3154.640625	4352.052246
3153.337891	4491.208496
3152.033203	4467.339355
3150.729492	4435.811523
3149.424805	4231.803223
3148.120117	4294.226563
3146.815430	4412.185059
3145.509766	4344.296875
3144.205078	4420.067871
3142.899414	4400.072754
3141.592773	4468.145508
3140.287109	4365.846191
3138.980469	4382.230957
3137.673828	4461.747070
3136.367188	4384.375000
3135.059570	4419.871582
3133.752930	4348.272949
3132.445313	4297.730957
3131.136719	4254.854492
3129.829102	4269.326172
3128.520508	4197.810547
3127.211914	4290.610840
3125.902344	4238.217773
3124.593750	4363.437500
3123.284180	4324.414551
3121.974609	4363.670410
3120.664063	4460.165527
3119.354492	4142.558594
3118.043945	4361.155762
3116.733398	4345.059082
3115.421875	4317.525391
3114.111328	4167.976074
3112.799805	4350.179688
3111.488281	4212.116699
3110.175781	4201.779297
3108.864258	4178.108887
3107.551758	4200.164063
3106.238281	4239.350586
3104.925781	4204.261719
3103.612305	4249.143066
3102.298828	4274.973145
3100.985352	4314.114258
3099.671875	4170.586914
3098.357422	4236.364258
3097.042969	4155.669434
3095.727539	4177.688477
3094.413086	4243.426270
3093.097656	4160.875000
3091.782227	4276.001465
3090.466797	4216.276367
3089.150391	4131.877930
3087.833984	4176.666992
3086.517578	4248.024902
3085.201172	4186.451660
3083.883789	4193.238770
3082.566406	4148.780273
3081.249023	4136.596680
3079.931641	4149.080566
3078.613281	4212.772461
3077.294922	4081.108154
3075.976563	4140.996582
3074.658203	4176.217285
3073.338867	4090.123047
3072.019531	4045.751221
3070.700195	4088.547852
3069.379883	4065.029541
3068.060547	4058.564941
3066.740234	4256.601563
3065.418945	4005.886719
3064.098633	4118.681641
3062.777344	4072.469971
3061.456055	4115.202637
3060.134766	4191.968262
3058.812500	4062.551025
3057.491211	4023.948975
3056.167969	4136.608887
3054.845703	4158.494141
3053.523438	4085.877686
3052.200195	4096.427246
3050.876953	4027.628662
3049.552734	4147.732910
3048.229492	4101.611816
3046.905273	4115.925293
3045.580078	3998.095459
3044.255859	4116.225098
3042.930664	4115.431152
3041.605469	4065.586182
3040.280273	4068.574219
3038.955078	4005.556152
3037.628906	4091.516113
3036.302734	4041.713379
3034.976563	4029.625000
3033.649414	4042.038086
3032.322266	4065.750488
3030.995117	4021.641357
3029.667969	4045.348145
3028.339844	3971.132568
3027.012695	3938.362061
3025.684570	4027.948242
3024.355469	3946.250732
3023.027344	4109.178711
3021.698242	3950.370605
3020.369141	4058.692139
3019.039063	3956.366455
3017.708984	4021.403809
3016.378906	3990.552246
3015.048828	3948.436523
3013.718750	4069.805664
3012.387695	4065.262207
3011.056641	4068.233398
3009.725586	3971.676514
3008.393555	4162.414063
3007.062500	5409.904785
3005.730469	5746.678223
3004.397461	4008.011963
3003.065430	3980.972656
3001.732422	4088.992920
3000.399414	3953.179199
2999.065430	4036.788330
2997.732422	3992.892090
2996.398438	3993.994385
2995.064453	4021.330078
2993.729492	3962.473633
2992.395508	3967.326904
2991.060547	4033.979736
2989.724609	4093.117188
2988.389648	3985.617920
2987.053711	3924.952637
2985.717773	4021.502930
2984.381836	4015.111816
2983.044922	4027.429443
2981.708984	3923.786377
2980.372070	3956.685059
2979.034180	3922.267822
2977.697266	3960.761230
2976.359375	4079.598145
2975.021484	4007.807617
2973.682617	3949.121338
2972.344727	4088.435791
2971.005859	3949.459717
2969.666016	3944.961182
2968.327148	3975.929932
2966.987305	3950.898682
2965.647461	3983.719971
2964.307617	4007.200439
2962.967773	3982.177002
2961.626953	3970.216553
2960.286133	4027.246094
2958.944336	3899.706787
2957.603516	4072.279297
2956.261719	4119.938477
2954.919922	4052.071289
2953.577148	3995.406250
2952.235352	3875.444824
2950.892578	3984.548096
2949.549805	4050.792480
2948.206055	4010.921875
2946.863281	4023.170410
2945.519531	3916.342041
2944.174805	3989.988281
2942.831055	3987.354980
2941.486328	3940.096436
2940.141602	4049.016357
2938.796875	3955.296631
2937.451172	4075.321045
2936.105469	4028.081299
2934.759766	4055.164307
2933.414063	3944.799805
2932.067383	3908.753662
2930.720703	4010.104492
2929.374023	3935.079590
2928.027344	3934.315918
2926.679688	4052.301270
2925.332031	4023.688477
2923.984375	4015.488770
2922.635742	3942.388916
2921.287109	4086.236572
2919.938477	4000.175293
2918.589844	3960.479736
2917.240234	3974.534180
2915.890625	3962.647217
2914.541016	3967.434326
2913.191406	3853.700928
2911.840820	3915.903320
2910.490234	3924.398438
2909.139648	4019.876221
2907.789063	4015.394531
2906.437500	3990.563965
2905.085938	3971.291748
2903.734375	3927.985596
2902.381836	4125.062500
2901.029297	4057.710938
2899.676758	4058.770752
2898.324219	4004.392822
2896.970703	4003.614502
2895.617188	4017.613770
2894.263672	3950.347412
2892.910156	3944.040039
2891.555664	3967.272705
2890.201172	4082.783203
2888.846680	3978.647705
2887.491211	4001.859375
2886.135742	3912.537354
2884.780273	4009.524658
2883.424805	3990.305420
2882.068359	4092.770264
2880.712891	3942.672363
2879.355469	3954.805420
2877.999023	3954.036133
2876.641602	3986.425537
2875.284180	4064.847412
2873.926758	4064.056396
2872.569336	3914.137939
2871.210938	3922.579834
2869.852539	3969.665771
2868.494141	4014.893311
2867.134766	3901.893311
2865.775391	3989.419434
2864.416016	3979.448242
2863.056641	4031.991943
2861.696289	4091.868164
2860.335938	4092.909180
2858.975586	3972.674561
2857.614258	4124.383789
2856.253906	3972.964111
2854.892578	3968.517334
2853.530273	4127.482422
2852.168945	3998.178467
2850.806641	4072.648926
2849.444336	4053.505615
2848.082031	4019.692139
2846.718750	4088.611572
2845.355469	4027.295410
2843.992188	4032.011230
2842.627930	3930.398926
2841.264648	4026.773926
2839.900391	4090.126221
2838.535156	4012.379150
2837.170898	4079.372559
2835.805664	4047.443115
2834.440430	4099.754883
2833.075195	4066.002441
2831.708984	4056.057861
2830.342773	4011.346924
2828.976563	4124.001953
2827.609375	4117.709961
2826.243164	4010.828857
2824.875977	4125.246094
2823.507813	4071.423340
2822.140625	4129.120117
2820.772461	4035.112061
2819.404297	4061.731934
2818.035156	4168.719238
2816.666992	4109.459961
2815.297852	4090.397217
2813.928711	4087.773193
2812.558594	4138.084961
2811.189453	4031.427246
2809.819336	4048.886475
2808.448242	3995.191650
2807.078125	4154.917480
2805.707031	4106.693359
2804.335938	4155.118164
2802.963867	4095.974854
2801.592773	4098.819824
2800.220703	4010.555908
2798.848633	4166.446777
2797.475586	4103.704102
2796.102539	4071.943848
2794.729492	4045.657959
2793.356445	4084.915527
2791.982422	4085.937256
2790.609375	4081.499512
2789.234375	4086.159668
2787.860352	4059.895508
2786.485352	3989.995361
2785.110352	4054.671875
2783.735352	4166.587891
2782.360352	4136.692871
2780.984375	4144.969727
2779.608398	4213.198242
2778.231445	3948.987549
2776.855469	4167.963867
2775.478516	4150.807129
2774.101563	4157.256836
2772.723633	4145.553223
2771.346680	4055.822510
2769.968750	4069.543701
2768.589844	3987.118652
2767.211914	4160.445801
2765.833008	4125.179688
2764.454102	4118.933594
2763.075195	4221.443359
2761.695313	4178.936523
2760.315430	4121.951172
2758.935547	4090.348877
2757.554688	4107.659668
2756.174805	4056.153320
2754.793945	4153.122070
2753.412109	4157.739258
2752.031250	4162.354004
2750.649414	4168.776367
2749.267578	4289.163574
2747.884766	4125.544434
2746.502930	4119.311523
2745.120117	4232.405273
2743.736328	4206.269531
2742.353516	4153.035645
2740.969727	4191.973145
2739.585938	4057.468506
2738.202148	4172.268555
2736.817383	4155.198730
2735.432617	4297.016113
2734.047852	4193.282227
2732.662109	4149.145996
2731.277344	4151.941406
2729.891602	4273.803223
2728.504883	4206.228027
2727.119141	4181.959961
2725.732422	4244.244629
2724.345703	4151.477539
2722.958008	4220.952637
2721.571289	4212.916992
2720.183594	4168.852539
2718.794922	4168.034668
2717.407227	4239.251953
2716.018555	4148.394531
2714.629883	4239.388672
2713.241211	4231.357910
2711.851563	4268.315918
2710.461914	4265.679199
2709.072266	4268.439453
2707.681641	4226.238281
2706.291016	4279.350098
2704.900391	4325.250000
2703.509766	4241.723145
2702.119141	4249.875488
2700.727539	4272.396973
2699.334961	4169.169922
2697.943359	4146.800293
2696.550781	4291.427734
2695.158203	4229.546875
2693.765625	4257.434082
2692.372070	4244.036133
2690.979492	4241.408203
2689.584961	4342.822266
2688.191406	4334.794922
2686.796875	4258.632813
2685.402344	4177.122070
2684.007813	4217.526367
2682.613281	4209.529297
2681.217773	4280.369629
2679.822266	4290.276367
2678.425781	4266.149902
2677.030273	4317.240234
2675.633789	4391.583496
2674.237305	4381.770020
2672.839844	4368.381348
2671.442383	4392.571777
2670.044922	4354.141113
2668.647461	4364.016113
2667.249023	4271.960449
2665.850586	4405.207031
2664.452148	4373.953613
2663.053711	4314.117676
2661.654297	4368.659180
2660.254883	4364.226563
2658.855469	4441.954590
2657.455078	4339.294434
2656.054688	4329.513672
2654.654297	4325.091797
2653.252930	4288.546875
2651.852539	4412.604492
2650.451172	4516.989746
2649.048828	4344.873535
2647.647461	4422.481445
2646.245117	4373.472168
2644.842773	4422.522461
2643.439453	4410.958496
2642.037109	4470.672852
2640.633789	4407.439453
2639.229492	4313.951172
2637.826172	4359.402344
2636.421875	4438.663574
2635.017578	4361.244629
2633.613281	4335.469238
2632.208008	4508.995605
2630.802734	4347.992676
2629.397461	4503.661133
2627.991211	4330.273926
2626.584961	4594.341797
2625.178711	4412.116211
2623.772461	4443.237793
2622.365234	4433.477051
2620.958008	4508.996582
2619.550781	4460.148926
2618.142578	4349.163574
2616.735352	4456.614258
2615.326172	4439.758301
2613.917969	4534.724121
2612.508789	4406.066406
2611.099609	4483.259277
2609.690430	4523.171875
2608.281250	4424.740234
2606.871094	4494.791016
2605.460938	4387.539551
2604.049805	4407.942383
2602.639648	4520.482910
2601.228516	4542.622559
2599.817383	4465.558105
2598.405273	4461.134766
2596.993164	4345.162109
2595.581055	4521.333984
2594.168945	4447.873535
2592.755859	4466.460449
2591.342773	4541.656250
2589.929688	4489.461426
2588.516602	4493.880371
2587.102539	4553.111328
2585.688477	4440.837402
2584.273438	4600.802734
2582.859375	4601.660645
2581.444336	4545.980957
2580.028320	4520.352051
2578.613281	4530.055664
2577.197266	4499.142578
2575.781250	4510.611328
2574.365234	4553.846191
2572.948242	4448.828125
2571.531250	4536.166504
2570.114258	4618.178223
2568.696289	4559.064453
2567.278320	4487.630371
2565.860352	4705.350586
2564.442383	4521.107910
2563.023438	4703.489746
2561.604492	4573.939453
2560.185547	4513.141113
2558.766602	4639.056641
2557.346680	4587.073242
2555.926758	4637.221191
2554.505859	4646.864746
2553.084961	4667.062988
2551.665039	4514.824219
2550.243164	4612.442383
2548.822266	4593.941406
2547.400391	4693.263184
2545.978516	4664.204590
2544.555664	4545.512695
2543.133789	4769.559082
2541.710938	4638.593750
2540.287109	4674.565430
2538.864258	4668.371094
2537.440430	4623.546387
2536.016602	4633.164551
2534.591797	4660.332031
2533.167969	4657.653809
2531.743164	4786.572266
2530.317383	4629.494629
2528.892578	4696.980469
2527.466797	4699.556641
2526.041016	4786.286621
2524.614258	4762.550781
2523.187500	4709.031250
2521.760742	4702.841309
2520.333984	4805.267090
2518.906250	4774.539551
2517.479492	4862.900879
2516.050781	4630.832520
2514.623047	4661.422363
2513.194336	4718.251465
2511.765625	4741.812012
2510.336914	4705.883789
2508.907227	4704.950684
2507.477539	4719.755859
2506.047852	4814.979004
2504.617188	4815.771973
2503.186523	4687.237305
2501.755859	4791.146484
2500.325195	4783.208008
2498.893555	4874.829590
2497.461914	4673.040527
2496.030273	4909.559570
2494.597656	4819.560547
2493.166016	4731.341797
2491.732422	4798.453613
2490.299805	4827.158203
2488.866211	4838.409180
2487.432617	4898.483398
2485.999023	4916.689453
2484.564453	4913.970215
2483.130859	4907.765625
2481.695313	4936.413086
2480.260742	4808.257324
2478.825195	4843.879883
2477.389648	4893.418945
2475.954102	4951.643555
2474.517578	4943.696777
2473.081055	4874.839355
2471.644531	4887.791016
2470.207031	4888.559570
2468.770508	4946.726074
2467.332031	4949.220703
2465.894531	4864.781250
2464.456055	4863.813965
2463.017578	4841.991699
2461.579102	4900.108398
2460.140625	5048.540039
2458.701172	4870.368652
2457.261719	4872.873535
2455.821289	4984.760254
2454.380859	4983.769043
2452.940430	4927.239746
2451.500000	4870.732910
2450.058594	5027.636719
2448.617188	5007.557129
2447.175781	4977.079590
2445.734375	5156.407715
2444.291992	4999.367676
2442.849609	5131.824707
2441.407227	5002.576660
2439.963867	5039.694824
2438.520508	5080.262207
2437.077148	5004.785156
2435.632813	4936.263672
2434.188477	4931.818848
2432.744141	5003.527344
2431.299805	5142.691895
2429.854492	5157.237793
2428.409180	5118.157715
2426.963867	5170.748047
2425.517578	5107.474121
2424.071289	5054.596680
2422.625000	5070.873047
2421.177734	5050.854980
2419.730469	5039.482910
2418.283203	5092.024414
2416.835938	5137.637207
2415.387695	5091.721680
2413.939453	5121.779297
2412.491211	5184.617188
2411.041992	5142.170410
2409.593750	5042.807617
2408.143555	5052.151855
2406.693359	5137.370605
2405.244141	5069.103027
2403.794922	5124.979004
2402.343750	5065.358398
2400.892578	5150.505859
2399.441406	5171.875000
2397.990234	5041.658203
2396.539063	5169.812012
2395.085938	5198.050781
2393.634766	5190.127930
2392.181641	5245.888184
2390.728516	5150.200195
2389.275391	5334.976074
2387.822266	5268.549316
2386.369141	5238.262695
2384.914063	5201.109863
2383.460938	5298.056641
2382.005859	5327.935547
2380.550781	5265.011230
2379.095703	5452.940430
2377.640625	5307.567871
2376.183594	5133.059082
2374.728516	5252.222168
2373.271484	5273.489258
2371.814453	5301.612793
2370.357422	5274.814941
2368.900391	5263.467285
2367.443359	5183.513672
2365.986328	5215.061523
2364.527344	5315.179688
2363.068359	5389.543457
2361.611328	5359.330566
2360.152344	5392.530273
2358.693359	5352.048828
2357.232422	5284.177246
2355.773438	5411.559570
2354.312500	5396.780762
2352.851563	5340.922852
2351.392578	5375.796387
2349.931641	5354.187500
2348.468750	5382.200684
2347.007813	5237.444824
2345.546875	5347.555176
2344.083984	5339.646484
2342.621094	5341.997559
2341.158203	5453.729004
2339.695313	5297.141113
2338.232422	5239.703613
2336.769531	5363.344238
2335.304688	5357.147949
2333.839844	5390.223633
2332.375000	5462.547852
2330.910156	5440.974121
2329.445313	5395.519531
2327.980469	5495.094238
2326.515625	5464.997559
2325.048828	5469.019531
2323.582031	5398.019531
2322.115234	5347.503418
2320.648438	5493.003418
2319.181641	5447.600098
2317.714844	5509.543457
2316.246094	5399.429199
2314.779297	5573.751465
2313.310547	5547.095703
2311.841797	5583.434082
2310.373047	5442.757324
2308.904297	5456.980957
2307.433594	5430.368652
2305.964844	5499.017090
2304.494141	5528.524902
2303.023438	5469.609375
2301.552734	5454.914063
2300.082031	5523.501465
2298.611328	5490.109375
2297.138672	5567.155762
2295.667969	5550.752930
2294.195313	5502.090820
2292.722656	5456.843750
2291.250000	5550.808594
2289.777344	5566.666992
2288.302734	5472.225586
2286.830078	5510.146484
2285.355469	5495.471680
2283.880859	5631.728516
2282.408203	5615.339355
2280.931641	5576.919922
2279.457031	5614.780273
2277.982422	5505.209961
2276.505859	5563.397949
2275.029297	5516.549805
2273.554688	5627.207520
2272.078125	5661.632324
2270.599609	5514.920410
2269.123047	5622.126465
2267.646484	5597.308594
2266.167969	5521.749023
2264.689453	5650.875977
2263.210938	5668.342285
2261.732422	5701.017090
2260.253906	5676.207031
2258.775391	5619.296387
2257.294922	5640.132813
2255.814453	5792.729004
2254.333984	5654.756348
2252.853516	5626.601563
2251.373047	5757.159180
2249.892578	5762.753906
2248.412109	5656.961914
2246.929688	5628.828125
2245.447266	5728.914063
2243.964844	5688.969727
2242.482422	5677.708008
2241.000000	5700.169434
2239.517578	5779.932129
2238.033203	5686.080078
2236.548828	5780.977051
2235.066406	5727.592285
2233.582031	5704.544922
2232.095703	5723.604004
2230.611328	5707.300293
2229.126953	5781.896973
2227.640625	5854.780762
2226.154297	5784.618164
2224.667969	5830.555664
2223.181641	5868.065430
2221.695313	5873.610352
2220.208984	5776.599609
2218.720703	5891.416016
2217.234375	5814.606445
2215.746094	5603.412598
2214.257813	5995.368164
2212.769531	5878.274414
2211.279297	5799.849121
2209.791016	5867.512695
2208.300781	5802.548340
2206.812500	5809.770020
2205.322266	5872.356445
2203.832031	5938.272461
2202.341797	5821.353516
2200.849609	5830.241211
2199.359375	5881.036621
2197.867188	5796.044922
2196.375000	5922.236816
2194.882813	5957.902832
2193.390625	5951.676758
2191.898438	5947.126953
2190.404297	5929.183594
2188.912109	5830.890137
2187.417969	5938.509277
2185.923828	5860.333984
2184.429688	6016.422363
2182.935547	5958.335449
2181.439453	6000.616211
2179.945313	5981.012695
2178.449219	6048.347656
2176.953125	5950.186035
2175.458984	6029.196289
2173.960938	5944.443359
2172.464844	6076.875000
2170.968750	5952.064941
2169.470703	6052.715820
2167.972656	6143.310059
2166.474609	6021.898926
2164.976563	6085.762695
2163.478516	6012.794434
2161.980469	6104.989746
2160.480469	5967.006348
2158.982422	6045.834473
2157.482422	6114.627930
2155.982422	6031.725586
2154.482422	6023.841797
2152.980469	6084.267578
2151.480469	6106.357422
2149.978516	6021.856934
2148.476563	6070.590332
2146.974609	6174.237305
2145.472656	6217.926758
2143.970703	6166.750488
2142.468750	6145.540039
2140.964844	6064.458496
2139.462891	6143.055664
2137.958984	6078.633301
2136.455078	6308.465332
2134.949219	6197.499512
2133.445313	6277.666504
2131.941406	6158.444824
2130.435547	6255.196289
2128.929688	6262.234375
2127.423828	6207.837891
2125.917969	6183.342773
2124.412109	6245.157715
2122.906250	6174.204102
2121.398438	6199.498047
2119.890625	6306.053711
2118.382813	6231.812988
2116.875000	6316.765137
2115.367188	6235.921387
2113.859375	6291.006348
2112.349609	6226.769043
2110.841797	6341.470703
2109.332031	6351.780762
2107.822266	6310.752441
2106.312500	6309.474609
2104.800781	6313.162598
2103.291016	6321.813477
2101.779297	6201.402832
2100.269531	6416.854004
2098.757813	6356.012695
2097.246094	6366.300293
2095.732422	6412.954590
2094.220703	6320.745117
2092.707031	6226.919922
2091.195313	6257.050781
2089.681641	6282.212891
2088.167969	6403.156250
2086.654297	6367.182617
2085.138672	6389.004395
2083.625000	6463.635254
2082.109375	6518.433105
2080.593750	6459.364746
2079.078125	6456.405273
2077.562500	6436.954590
2076.046875	6341.661621
2074.531250	6315.646973
2073.013672	6406.666992
2071.496094	6444.916992
2069.978516	6379.354492
2068.460938	6452.185547
2066.943359	6401.469238
2065.425781	6317.842773
2063.906250	6507.522461
2062.386719	6585.204590
2060.869141	6409.438965
2059.349609	6388.395508
2057.828125	6502.240723
2056.308594	6492.697754
2054.789063	6542.350586
2053.267578	6467.047363
2051.746094	6432.862793
2050.224609	6484.139648
2048.703125	6489.394043
2047.181641	6540.637695
2045.658203	6481.831543
2044.136719	6644.703125
2042.613281	6484.123047
2041.089844	6522.194824
2039.566406	6502.819824
2038.042969	6457.203613
2036.517578	6551.023926
2034.994141	6444.740234
2033.468750	6556.559082
2031.943359	6569.979492
2030.417969	6493.255371
2028.892578	6508.320801
2027.367188	6497.167969
2025.839844	6595.757813
2024.314453	6617.342285
2022.787109	6521.038086
2021.259766	6676.853027
2019.732422	6690.223633
2018.203125	6549.784180
2016.675781	6540.272461
2015.146484	6583.102051
2013.619141	6689.687012
2012.089844	6671.977051
2010.560547	6682.061035
2009.029297	6646.382813
2007.500000	6671.172363
2005.968750	6630.608887
2004.439453	6777.882813
2002.908203	6631.175781
2001.376953	6629.825684
1999.843750	6697.029297
1998.312500	6725.040039
1996.781250	6795.458984
1995.248047	6678.257813
1993.714844	6791.060547
1992.181641	6688.582520
1990.648438	6679.068848
1989.115234	6738.014648
1987.580078	6661.681641
1986.044922	6738.527832
1984.511719	6769.732910
1982.976563	6607.124512
1981.441406	6560.187012
1979.904297	6749.315430
1978.369141	6811.415527
1976.832031	6823.044922
1975.294922	6611.782227
1973.759766	6825.143066
1972.220703	6735.934082
1970.683594	6732.934570
1969.146484	6788.457031
1967.607422	6918.718750
1966.068359	6806.812500
1964.531250	6785.929199
1962.992188	6730.944336
1961.451172	6705.211914
1959.912109	6767.164551
1958.371094	6890.775391
1956.832031	6871.517090
1955.291016	6795.475098
1953.750000	6758.397949
1952.208984	6852.713379
1950.666016	6864.287598
1949.125000	6896.933105
1947.582031	6822.582520
1946.039063	6902.220703
1944.496094	6947.799805
1942.953125	6837.843750
1941.410156	6800.815430
1939.865234	6846.386230
1938.322266	6895.175781
1936.777344	6795.030762
1935.232422	6921.488770
1933.687500	6845.647949
1932.142578	6960.719727
1930.595703	6729.639160
1929.050781	6993.448730
1927.503906	6925.737305
1925.957031	6982.509277
1924.410156	6842.106934
1922.863281	6915.028809
1921.314453	6842.540527
1919.767578	6971.956543
1918.218750	6918.861816
1916.669922	6888.389160
1915.121094	6867.612305
1913.572266	6980.779297
1912.021484	6932.564453
1910.472656	6927.920410
1908.921875	7000.687012
1907.371094	7049.238281
1905.820313	7009.106934
1904.269531	6881.960449
1902.718750	7075.528320
1901.166016	7006.416504
1899.615234	6956.661621
1898.062500	6873.108398
1896.509766	6850.770508
1894.957031	6950.780762
1893.402344	7016.952637
1891.849609	7020.343262
1890.294922	7068.776367
1888.740234	6994.950684
1887.185547	6985.478027
1885.630859	7027.456543
1884.076172	7054.950684
1882.519531	7035.827637
1880.964844	7092.229980
1879.408203	7029.732910
1877.851563	6973.685059
1876.294922	7063.785156
1874.736328	7193.983887
1873.179688	7101.018555
1871.621094	7125.239746
1870.064453	7104.525879
1868.505859	7066.174805
1866.947266	7221.898438
1865.386719	7149.865234
1863.828125	7201.302734
1862.267578	7049.162109
1860.708984	7063.741699
1859.148438	7078.314453
1857.587891	7072.057129
1856.025391	7077.012695
1854.464844	7189.244141
1852.902344	7224.588867
1851.341797	7247.114258
1849.779297	7197.622070
1848.216797	7132.150879
1846.652344	7249.052246
1845.089844	7169.204102
1843.525391	7114.969727
1841.962891	7366.079102
1840.398438	7108.853027
1838.833984	7305.531250
1837.267578	7243.324219
1835.703125	7219.476074
1834.136719	7277.079102
1832.572266	7234.073730
1831.005859	7248.550781
1829.439453	7226.314941
1827.873047	7218.448242
1826.304688	7218.560547
1824.738281	7344.672363
1823.169922	7218.784180
1821.601563	7419.774414
1820.033203	7338.552246
1818.464844	7332.263672
1816.896484	7281.364258
1815.326172	7351.551270
1813.755859	7307.039063
1812.185547	7286.429199
1810.615234	7222.843750
1809.044922	7313.675293
1807.474609	7313.762695
1805.902344	7277.256836
1804.332031	7309.164551
1802.759766	7232.914551
1801.187500	7385.659180
1799.615234	7349.166992
1798.041016	7428.712891
1796.468750	7414.472168
1794.894531	7365.285156
1793.320313	7324.060059
1791.746094	7341.609863
1790.171875	7249.598145
1788.597656	7284.616211
1787.021484	7302.162109
1785.445313	7324.460449
1783.871094	7177.000977
1782.294922	7302.411621
1780.716797	7338.966797
1779.140625	7380.262695
1777.564453	7301.071777
1775.986328	7413.673828
1774.408203	7407.393555
1772.830078	7500.916016
1771.251953	7453.440430
1769.673828	7325.225586
1768.093750	7415.540039
1766.513672	7395.018066
1764.935547	7474.202148
1763.355469	7390.388672
1761.773438	7360.392090
1760.193359	7479.071289
1758.613281	7482.273438
1757.031250	7400.105957
1755.449219	7348.002930
1753.867188	7479.227051
1752.285156	7551.940430
1750.701172	7406.641602
1749.119141	7409.852051
1747.535156	7446.217773
1745.951172	7398.902832
1744.367188	7365.811035
1742.783203	7569.424805
1741.199219	7548.932129
1739.613281	7569.456543
1738.029297	7429.121094
1736.443359	7585.252930
1734.857422	7646.740234
1733.271484	7418.218750
1731.683594	7463.957520
1730.097656	7615.225586
1728.509766	7607.353516
1726.921875	7372.727539
1725.333984	7630.976563
1723.746094	7547.550781
1722.158203	7527.107422
1720.568359	7613.663086
1718.978516	7580.628906
1717.390625	7651.409668
1715.800781	7586.932129
1714.208984	7568.071777
1712.619141	7605.802246
1711.027344	7684.374512
1709.437500	7604.230469
1707.845703	7640.358398
1706.253906	7544.550781
1704.662109	7593.236328
1703.068359	7630.912109
1701.476563	7626.195801
1699.882813	7808.212402
1698.289063	7574.408203
1696.695313	7765.770996
1695.101563	7753.187500
1693.505859	7685.733398
1691.912109	7688.846680
1690.316406	7809.500000
1688.720703	7782.813965
1687.125000	7696.608887
1685.529297	7735.738770
1683.933594	7705.951660
1682.335938	7741.931641
1680.738281	7837.376953
1679.140625	7660.479492
1677.542969	7759.030762
1675.945313	7793.403809
1674.347656	7810.558594
1672.748047	7785.486816
1671.148438	7822.958496
1669.548828	7816.649414
1667.949219	7869.725098
1666.349609	7927.465332
1664.748047	7936.757813
1663.148438	7710.226074
1661.546875	7928.786133
1659.945313	7713.276367
1658.343750	7808.444824
1656.742188	7708.520020
1655.138672	7767.766602
1653.537109	7883.140625
1651.933594	7837.842285
1650.330078	7848.690918
1648.726563	7845.505371
1647.121094	7910.894043
1645.517578	7935.742676
1643.912109	7940.329102
1642.306641	7929.337402
1640.701172	8002.438477
1639.095703	7943.174805
1637.490234	8010.015625
1635.884766	7882.299805
1634.277344	7894.667969
1632.669922	8005.032227
1631.062500	7975.376953
1629.455078	7947.288086
1627.845703	7813.496582
1626.238281	7916.013184
1624.628906	8004.500488
1623.019531	8010.607422
1621.410156	7872.251953
1619.800781	8010.388184
1618.191406	8035.121094
1616.580078	8156.088867
1614.968750	8089.209961
1613.359375	8016.151367
1611.746094	8107.570313
1610.134766	7963.187988
1608.523438	7947.577637
1606.910156	8003.292480
1605.298828	7959.776855
1603.685547	7962.772949
1602.070313	8041.690430
1600.457031	7984.250488
1598.843750	7936.126953
1597.228516	8047.517578
1595.613281	8095.386230
1593.998047	7948.206055
1592.382813	8023.930176
1590.767578	8173.888184
1589.152344	8127.329102
1587.535156	8042.125000
1585.917969	8085.293945
1584.300781	8153.178711
1582.683594	8137.572754
1581.066406	8070.978516
1579.447266	8318.038086
1577.828125	7981.122070
1576.210938	8127.715332
1574.591797	8139.920410
1572.970703	8176.818359
1571.351563	8133.446777
1569.730469	8128.667969
1568.111328	8259.648438
1566.490234	8071.301270
1564.869141	8225.369141
1563.248047	8143.486328
1561.625000	8303.640625
1560.003906	8181.705566
1558.380859	8229.306641
1556.757813	8152.110840
1555.134766	8195.077148
1553.511719	8308.856445
1551.886719	8228.611328
1550.263672	8271.533203
1548.638672	8277.504883
1547.013672	8254.240234
1545.388672	8274.055664
1543.761719	8304.626953
1542.136719	8398.226563
1540.509766	8350.358398
1538.882813	8473.109375
1537.255859	8268.510742
1535.628906	8366.645508
1534.001953	8281.958984
1532.373047	8358.550781
1530.746094	8287.717773
1529.117188	8370.415039
1527.488281	8414.709961
1525.859375	8373.061523
1524.228516	8205.637695
1522.599609	8194.723633
1520.968750	8387.756836
1519.337891	8326.215820
1517.707031	8209.521484
1516.076172	8564.869141
1514.443359	8354.711914
1512.810547	8375.945313
1511.179688	8406.358398
1509.546875	8326.513672
1507.914063	8355.392578
1506.279297	8523.537109
1504.646484	8413.112305
1503.011719	8616.362305
1501.376953	8467.723633
1499.742188	8368.083008
1498.107422	8384.681641
1496.472656	8541.907227
1494.835938	8425.500000
1493.201172	8570.425781
1491.564453	8402.120117
1489.927734	8495.059570
1488.289063	8586.432617
1486.652344	8549.524414
1485.013672	8546.210938
1483.376953	8475.751953
1481.738281	8568.576172
1480.099609	8453.904297
1478.458984	8522.291016
1476.820313	8560.154297
1475.179688	8640.685547
1473.539063	8486.462891
1471.898438	8627.928711
1470.257813	8607.841797
1468.617188	8732.466797
1466.974609	8637.744141
1465.333984	8623.756836
1463.691406	8550.407227
1462.048828	8732.770508
1460.406250	8685.294922
1458.761719	8646.966797
1457.119141	8550.857422
1455.474609	8584.041992
1453.830078	8792.050781
1452.185547	8674.689453
1450.539063	8686.550781
1448.894531	8721.196289
1447.248047	8626.708008
1445.603516	8741.843750
1443.957031	8715.718750
1442.308594	8920.354492
1440.662109	8839.561523
1439.015625	8726.935547
1437.367188	8849.512695
1435.718750	8864.343750
1434.070313	8738.132813
1432.421875	8619.554688
1430.771484	8928.502930
1429.123047	8884.195313
1427.472656	8797.480469
1425.822266	8907.740234
1424.171875	8972.515625
1422.521484	8855.548828
1420.869141	9059.591797
1419.218750	8883.622070
1417.566406	8881.758789
1415.914063	8869.304688
1414.261719	9064.095703
1412.607422	9078.830078
1410.955078	9108.679688
1409.300781	8938.963867
1407.646484	8885.700195
1405.992188	9072.724609
1404.337891	9084.417969
1402.683594	8954.121094
1401.027344	8952.241211
1399.371094	9003.207031
1397.714844	8963.579102
1396.058594	8981.316406
1394.402344	9029.224609
1392.744141	8986.597656
1391.087891	9011.859375
1389.429688	9187.903320
1387.771484	9097.024414
1386.113281	9137.318359
1384.453125	9072.104492
1382.794922	9071.706055
1381.134766	9044.191406
1379.474609	9031.749023
1377.814453	9010.276367
1376.154297	9024.943359
1374.492188	8985.418945
1372.832031	9141.532227
1371.169922	9067.396484
1369.507813	9094.069336
1367.845703	9204.944336
1366.181641	9139.861328
1364.519531	9237.150391
1362.855469	9134.514648
1361.191406	9016.896484
1359.527344	9160.718750
1357.863281	9235.389648
1356.199219	9021.719727
1354.533203	9198.476563
1352.867188	9139.503906
1351.201172	9353.676758
1349.535156	9200.172852
1347.869141	9297.239258
1346.201172	9185.802734
1344.535156	9249.843750
1342.867188	9328.847656
1341.199219	9391.331055
1339.531250	9290.455078
1337.861328	9237.562500
1336.193359	9226.629883
1334.523438	9284.587891
1332.853516	9192.800781
1331.183594	9421.383789
1329.511719	9419.399414
1327.841797	9504.198242
1326.169922	9291.268555
1324.500000	9295.293945
1322.828125	9595.386719
1321.154297	9283.901367
1319.482422	9365.646484
1317.808594	9408.503906
1316.136719	9529.032227
1314.462891	9692.828125
1312.789063	9411.515625
1311.113281	9566.307617
1309.439453	9562.797852
1307.763672	9389.146484
1306.087891	9537.875000
1304.412109	9616.422852
1302.736328	9539.817383
1301.060547	9655.611328
1299.382813	9574.556641
1297.707031	9614.273438
1296.029297	9648.010742
1294.351563	9736.862305
1292.671875	9703.525391
1290.994141	9722.328125
1289.314453	9711.341797
1287.636719	9599.127930
1285.957031	9707.242188
1284.275391	9837.631836
1282.595703	9963.500977
1280.914063	9821.578125
1279.234375	9816.529297
1277.552734	9847.166016
1275.871094	9839.140625
1274.189453	10028.780273
1272.505859	9961.283203
1270.822266	9916.097656
1269.140625	9866.475586
1267.457031	9785.689453
1265.771484	9927.628906
1264.087891	9947.795898
1262.404297	10052.540039
1260.718750	9951.009766
1259.033203	10027.524414
1257.347656	10041.717773
1255.662109	10076.663086
1253.974609	10067.120117
1252.287109	9961.244141
1250.601563	10082.126953
1248.914063	9967.401367
1247.224609	10060.087891
1245.537109	10127.560547
1243.849609	9955.156250
1242.160156	10207.648438
1240.470703	10387.518555
1238.781250	10139.707031
1237.091797	10164.188477
1235.400391	10213.801758
1233.708984	10115.526367
1232.019531	10333.659180
1230.328125	10179.234375
1228.634766	10116.492188
1226.943359	10192.653320
1225.250000	10354.453125
1223.558594	10251.838867
1221.865234	10107.926758
1220.171875	10064.453125
1218.476563	10267.463867
1216.783203	10365.625977
1215.087891	10204.105469
1213.392578	10399.582031
1211.697266	10466.684570
1210.001953	10331.780273
1208.306641	10335.487305
1206.609375	10340.665039
1204.912109	10370.886719
1203.214844	10268.522461
1201.517578	10326.726563
1199.820313	10436.440430
1198.121094	10332.653320
1196.423828	10383.446289
1194.724609	10366.529297
1193.025391	10408.465820
1191.326172	10585.702148
1189.625000	10548.164063
1187.923828	10620.907227
1186.224609	10558.387695
1184.523438	10597.296875
1182.822266	10492.197266
1181.119141	10655.965820
1179.417969	10846.099609
1177.714844	10619.138672
1176.011719	10665.330078
1174.308594	10683.614258
1172.605469	10660.802734
1170.900391	10742.164063
1169.197266	10868.961914
1167.492188	10783.063477
1165.787109	10742.653320
1164.080078	10614.307617
1162.375000	10795.247070
1160.667969	10973.177734
1158.962891	10878.556641
1157.255859	10917.254883
1155.548828	10871.005859
1153.839844	11034.126953
1152.132813	11021.536133
1150.423828	10918.220703
1148.714844	10911.511719
1147.005859	11108.125977
1145.296875	11028.254883
1143.585938	10960.114258
1141.876953	10919.777344
1140.166016	11085.528320
1138.455078	11172.303711
1136.744141	11089.579102
1135.033203	11142.722656
1133.320313	11230.888672
1131.607422	11130.682617
1129.894531	11106.419922
1128.181641	11350.683594
1126.468750	11202.366211
1124.753906	11224.780273
1123.041016	11175.722656
1121.326172	11349.772461
1119.611328	11213.241211
1117.896484	11353.686523
1116.179688	11288.611328
1114.464844	11267.268555
1112.748047	11340.609375
1111.031250	11304.701172
1109.314453	11417.311523
1107.595703	11317.353516
1105.878906	11378.976563
1104.160156	11487.131836
1102.441406	11429.406250
1100.722656	11434.243164
1099.003906	11468.158203
1097.283203	11369.766602
1095.562500	11438.562500
1093.843750	11331.499023
1092.123047	11483.083008
1090.400391	11412.367188
1088.679688	11550.797852
1086.957031	11288.446289
1085.236328	11497.969727
1083.513672	11357.647461
1081.789063	11390.048828
1080.066406	11555.894531
1078.341797	11601.291016
1076.619141	11537.915039
1074.894531	11622.437500
1073.169922	11612.710938
1071.443359	11574.004883
1069.718750	11572.984375
1067.992188	11514.023438
1066.265625	11672.313477
1064.539063	11627.833984
1062.812500	11609.428711
1061.085938	11706.810547
1059.357422	11556.723633
1057.628906	11684.453125
1055.900391	11502.613281
1054.171875	11572.458008
1052.443359	11688.534180
1050.712891	11866.712891
1048.982422	11712.443359
1047.251953	11790.848633
1045.521484	11908.220703
1043.791016	11897.011719
1042.058594	11725.538086
1040.328125	11786.548828
1038.595703	11934.125977
1036.863281	11970.535156
1035.128906	11858.336914
1033.396484	11974.071289
1031.662109	12081.103516
1029.927734	11870.916992
1028.193359	12018.282227
1026.458984	11939.334961
1024.724609	11903.644531
1022.988281	12203.594727
1021.251953	11974.880859
1019.515625	12132.141602
1017.779297	11972.636719
1016.042969	11899.552734
1014.304688	11935.857422
1012.568359	12126.077148
1010.830078	12224.164063
1009.089844	12054.739258
1007.351563	12266.375000
1005.613281	12134.384766
1003.873047	12176.335938
1002.132813	12142.120117
1000.392578	12230.017578
998.652344	12197.239258
996.910156	12244.881836
995.169922	12088.656250
993.427734	12061.667969
991.685547	12285.802734
989.941406	12330.512695
988.199219	12260.458008
986.455078	12285.077148
984.712891	12377.068359
982.968750	12342.880859
981.222656	12351.700195
979.478516	12354.784180
977.734375	12261.890625
975.988281	12246.372070
974.242188	12313.907227
972.496094	12427.221680
970.748047	12340.114258
969.001953	12381.826172
967.253906	12400.629883
965.505859	12302.139648
963.757813	12546.891602
962.009766	12505.597656
960.259766	12408.575195
958.511719	12445.926758
956.761719	12383.247070
955.011719	12374.875977
953.259766	12425.062500
951.509766	12540.908203
949.757813	12356.916016
948.007813	12501.270508
946.255859	12525.698242
944.501953	12547.261719
942.750000	12627.293945
940.996094	12558.985352
939.244141	12509.239258
937.490234	12563.568359
935.734375	12577.970703
933.980469	12682.128906
932.224609	12696.498047
930.470703	12622.560547
928.714844	12689.618164
926.958984	12796.506836
925.201172	12567.457031
923.445313	12631.634766
921.687500	12798.215820
919.929688	12765.594727
918.171875	12725.876953
916.414063	12812.709961
914.654297	12723.248047
912.894531	12747.512695
911.136719	12790.237305
909.375000	12901.127930
907.615234	12860.006836
905.855469	12696.791016
904.093750	12814.725586
902.332031	12979.445313
900.570313	13075.981445
898.808594	12790.849609
897.044922	12745.544922
895.283203	12932.823242
893.519531	12954.141602
891.755859	12905.994141
889.992188	12975.490234
888.226563	12989.699219
886.462891	13003.900391
884.697266	12910.459961
882.931641	12957.237305
881.166016	13022.397461
879.398438	12865.321289
877.632813	12992.731445
875.865234	13008.324219
874.097656	12889.539063
872.330078	13221.905273
870.562500	13206.331055
868.792969	13076.270508
867.023438	12865.712891
865.253906	13045.202148
863.484375	12937.858398
861.714844	13120.077148
859.943359	12925.219727
858.173828	12947.842773
856.402344	13042.434570
854.628906	13128.518555
852.857422	12935.235352
851.085938	13129.908203
849.312500	12933.885742
847.539063	13141.162109
845.765625	12981.867188
843.992188	13127.036133
842.216797	13001.625977
840.441406	13019.949219
838.667969	13067.838867
836.892578	13252.284180
835.115234	13191.707031
833.339844	13160.710938
831.562500	13198.674805
829.785156	13276.012695
828.007813	13138.122070
826.230469	13202.782227
824.451172	13139.476563
822.673828	13205.512695
820.894531	13125.369141
819.115234	13087.408203
817.335938	13271.403320
815.554688	13181.463867
813.775391	13139.300781
811.994141	13236.128906
810.212891	13077.483398
808.431641	13269.696289
806.648438	13265.424805
804.867188	13219.077148
803.083984	13242.862305
801.300781	13239.998047
799.515625	13370.291016
797.732422	13181.021484
795.947266	13342.091797
794.164063	13284.577148
792.378906	13266.297852
790.591797	13392.239258
788.806641	13467.732422
787.019531	13362.652344
785.234375	13326.179688
783.447266	13484.170898
781.658203	13394.538086
779.871094	13678.292969
778.082031	13462.833984
776.294922	13549.372070
774.505859	13514.298828
772.716797	13515.563477
770.925781	13561.524414
769.136719	13516.692383
767.345703	13559.838867
765.554688	13396.374023
763.763672	13496.745117
761.970703	13655.674805
760.179688	13451.837891
758.386719	13600.943359
756.593750	13458.557617
754.800781	13383.148438
753.005859	13475.024414
751.212891	13578.007813
749.417969	13605.713867
747.623047	13627.834961
745.828125	13418.780273
744.033203	13439.539063
742.236328	13559.117188
740.439453	13597.926758
738.642578	13549.061523
736.845703	13683.837891
735.048828	13575.170898
733.250000	13594.473633
731.451172	13540.087891
729.652344	13502.403320
727.853516	13388.308594
726.054688	13534.052734
724.253906	13568.616211
722.455078	13630.937500
720.654297	13472.483398
718.853516	13465.394531
717.050781	13695.611328
715.250000	13410.986328
713.447266	13426.107422
711.644531	13606.252930
709.841797	13542.290039
708.037109	13522.713867
706.234375	13546.108398
704.429688	13637.388672
702.625000	13613.644531
700.820313	13548.360352
699.013672	13665.886719
697.208984	13563.238281
695.402344	13647.490234
693.595703	13533.817383
691.789063	13637.406250
689.982422	13486.435547
688.173828	13661.900391
686.365234	13584.267578
684.556641	13618.635742
682.748047	13691.685547
680.939453	13517.374023
679.128906	13611.132813
677.318359	13688.276367
675.507813	13671.489258
673.697266	13715.452148
671.886719	13800.801758
670.074219	13724.662109
668.261719	13546.463867
666.449219	13648.342773
664.636719	13552.977539
662.824219	13616.205078
661.009766	13627.024414
659.195313	13502.783203
657.380859	13477.797852
655.566406	13804.088867
653.751953	13623.420898
651.935547	13590.161133
650.119141	13624.369141
648.302734	13536.069336
646.486328	13636.321289
644.669922	13479.269531
642.851563	13569.860352
641.033203	13722.291016
639.214844	13647.809570
637.396484	13510.131836
635.578125	13541.541992
633.757813	13596.293945
631.937500	13549.373047
630.117188	13601.351563
628.296875	13753.536133
626.474609	13658.564453
624.654297	13699.502930
622.832031	13512.650391
621.009766	13453.457031
619.185547	13557.500977
617.363281	13588.823242
615.539063	13441.911133
613.714844	13539.033203
611.890625	13351.083984
610.066406	13448.181641
608.242188	13543.866211
606.416016	13536.800781
604.589844	13395.563477
602.763672	13559.635742
600.937500	13464.982422
599.109375	13382.684570
597.281250	13502.875977
595.453125	13415.132813
593.625000	13509.283203
591.796875	13265.733398
589.966797	13577.184570
588.138672	13436.207031
586.308594	13483.818359
584.478516	13625.650391
582.646484	13525.718750
580.816406	13339.819336
578.984375	13428.354492
577.152344	13570.071289
575.320313	13412.932617
573.486328	13504.119141
571.654297	13602.083984
569.820313	13445.039063
567.986328	13482.992188
566.152344	13501.848633
564.316406	13438.942383
562.482422	13474.145508
560.646484	13384.031250
558.810547	13281.701172
556.974609	13310.105469
555.136719	13358.913086
553.300781	13097.442383
551.462891	13192.529297
549.625000	13241.328125
547.785156	13163.635742
545.947266	13340.217773
544.107422	13270.692383
542.267578	13256.914063
540.427734	13154.826172
538.587891	13208.997070
536.748047	13237.339844
534.906250	13026.696289
533.064453	12946.464844
531.222656	13170.280273
529.378906	12996.424805
527.537109	13027.491211
525.693359	12983.947266
523.849609	13023.136719
522.005859	12841.328125
520.162109	13037.758789
518.316406	12964.433594
516.470703	12901.979492
514.625000	12904.567383
512.779297	12838.088867
510.933594	12726.958008
509.085938	12822.982422
507.238281	12714.608398
505.390625	12816.002930
503.542969	12822.660156
501.695313	12677.839844
499.845703	12688.579102
497.996094	12597.923828
496.146484	12747.883789
494.296875	12722.114258
492.447266	12665.283203
490.595703	12511.227539
488.744141	12593.553711
486.892578	12619.139648
485.041016	12608.269531
483.187500	12672.974609
481.333984	12551.462891
479.480469	12408.420898
477.626953	12539.206055
475.773438	12388.137695
473.917969	12444.727539
472.064453	12452.774414
470.208984	12573.999023
468.351563	12474.244141
466.496094	12277.560547
464.638672	12405.473633
462.783203	12398.708008
460.925781	12316.572266
459.066406	12276.185547
457.208984	12309.810547
455.349609	12207.570313
453.490234	12276.156250
451.630859	12411.934570
449.771484	12165.912109
447.912109	12249.242188
446.050781	12237.142578
444.189453	12143.107422
442.328125	12274.732422
440.466797	12152.532227
438.603516	12222.345703
436.740234	11952.581055
434.876953	12172.686523
433.013672	12050.613281
431.150391	12010.406250
429.285156	11962.170898
427.419922	11869.715820
425.554688	11900.609375
423.689453	11947.568359
421.824219	12021.300781
419.957031	11777.555664
418.089844	11904.856445
416.222656	11788.432617
414.355469	11838.038086
412.488281	11706.957031
410.619141	11815.426758
408.750000	11652.303711
406.880859	11491.926758
405.011719	11672.571289
403.140625	11489.533203
401.269531	11627.329102
399.398438	11565.973633
397.527344	11548.727539
395.656250	11446.011719
393.783203	11436.809570
391.910156	11506.376953
390.037109	11481.148438
388.164063	11457.264648
386.291016	11325.326172
384.416016	11396.187500
382.541016	11372.335938
380.666016	11291.165039
378.791016	11311.332031
376.914063	11300.838867
375.039063	11214.405273
373.162109	11310.501953
371.285156	11248.074219
369.406250	11155.050781
367.529297	11038.105469
365.650391	11071.601563
363.771484	10976.014648
361.892578	10875.147461
360.011719	10884.714844
358.132813	10910.233398
356.251953	10946.375000
354.371094	10777.816406
352.490234	10958.811523
350.607422	10818.221680
348.724609	10745.433594
346.841797	10755.009766
344.958984	10678.283203
343.076172	10665.302734
341.193359	10563.415039
339.308594	10525.255859
337.423828	10540.171875
335.539063	10519.273438
333.652344	10644.231445
331.767578	10572.945313
329.880859	10590.485352
327.994141	10466.241211
326.107422	10432.131836
324.218750	10444.391602
322.330078	10329.528320
320.443359	10263.697266
318.552734	10348.779297
316.664063	10312.083008
314.775391	10334.935547
312.884766	10266.513672
310.994141	10191.509766
309.103516	10014.738281
307.210938	10095.791992
305.320313	10028.802734
303.427734	10016.010742
301.535156	10021.716797
299.642578	9884.793945
297.748047	9819.227539
295.853516	9773.490234
293.960938	9707.976563
292.064453	9882.629883
290.169922	9799.970703
288.275391	9754.275391
286.378906	9526.637695
284.482422	9768.406250
282.585938	9596.219727
280.687500	9653.387695
278.791016	9515.553711
276.892578	9543.736328
274.994141	9481.045898
273.095703	9484.208008
271.195313	9262.293945
269.294922	9393.147461
267.396484	9389.747070
265.494141	9341.625977
263.593750	9175.169922
261.691406	9308.553711
259.791016	9240.763672
257.888672	9203.228516
255.986328	9038.261719
254.082031	9057.272461
252.177734	9160.325195
250.275391	8925.886719
248.371094	8846.453125
246.464844	9099.099609
244.560547	9031.470703
242.654297	8906.150391
240.748047	8822.854492
238.841797	8886.457031
236.935547	8750.761719
235.027344	8731.778320
233.119141	8752.113281
231.210938	8607.366211
229.302734	8507.216797
227.392578	8620.562500
225.484375	8479.867188
223.574219	8569.607422
221.664063	8507.502930
219.751953	8514.768555
217.841797	8502.410156
215.929688	8306.967773
214.017578	8382.260742
212.105469	8192.160156
210.193359	8334.095703
208.279297	8287.816406
206.365234	8182.772461
204.451172	8221.437500
202.537109	8252.250977
200.621094	8256.940430
198.705078	8012.343262
196.789063	8129.301270
194.873047	8033.561523
192.957031	8027.859375
191.039063	7936.095215
189.123047	7856.105469
187.203125	7926.042480
185.285156	8006.373047
183.367188	7857.369141
181.447266	7853.012695
179.527344	7753.593750
177.607422	7725.826172
175.687500	7686.355469
173.765625	7628.682617
171.843750	7633.487305
169.921875	7543.330566
168.000000	7555.954102
166.078125	7456.752441
164.154297	7432.990234
162.230469	7396.242188
160.306641	7369.904297
158.382813	7428.016602
156.457031	7309.470215
154.531250	7305.242188
152.605469	7284.138672
150.679688	7243.576172
148.753906	7214.709473
146.826172	7165.098145
144.898438	7173.874512
142.970703	7073.720703
141.042969	6995.650391
139.113281	7064.080566
137.183594	7006.780762
135.253906	6941.731934
133.324219	6826.195313
131.394531	6842.800781
129.462891	6841.271973
127.531250	6667.584473
125.599609	6522.445313
123.667969	6381.252441
121.734375	6337.138672
119.802734	6034.390625
117.869141	5861.075195
115.935547	5698.178711
114.000000	5619.360840
112.066406	5305.413086
110.130859	5383.027832
108.195313	5348.243652
106.257813	5228.252930
104.322266	5238.702148
102.384766	5183.322266
100.447266	5086.674316
