#Wave		#Intensity
3501.405273	9917.174805
3500.167969	9929.293945
3498.929688	9929.443359
3497.691406	10101.209961
3496.453125	9891.386719
3495.213867	10141.807617
3493.975586	9988.555664
3492.736328	9924.131836
3491.497070	9922.262695
3490.256836	9984.928711
3489.017578	10065.718750
3487.777344	10007.375000
3486.537109	9906.724609
3485.296875	10027.786133
3484.055664	9973.510742
3482.814453	10013.934570
3481.573242	10104.696289
3480.332031	9985.996094
3479.089844	10016.327148
3477.848633	9901.713867
3476.606445	9938.085938
3475.363281	9996.578125
3474.121094	10006.763672
3472.877930	9908.328125
3471.634766	10037.178711
3470.391602	10196.139648
3469.147461	10135.917969
3467.904297	10154.105469
3466.660156	10120.037109
3465.416016	10102.055664
3464.170898	10116.219727
3462.926758	10238.832031
3461.681641	9983.889648
3460.436523	10050.265625
3459.190430	10030.303711
3457.945313	9966.197266
3456.699219	10219.143555
3455.453125	10110.889648
3454.206055	10110.987305
3452.959961	10137.153320
3451.712891	10085.115234
3450.465820	10059.156250
3449.218750	10253.671875
3447.970703	9953.161133
3446.722656	10219.748047
3445.474609	10396.094727
3444.226563	10129.771484
3442.978516	10033.748047
3441.729492	10157.977539
3440.480469	10071.992188
3439.231445	10152.138672
3437.981445	10190.238281
3436.731445	10284.334961
3435.481445	10204.388672
3434.231445	10166.465820
3432.981445	10082.572266
3431.730469	10198.605469
3430.479492	11843.495117
3429.228516	10492.480469
3427.977539	10332.669922
3426.725586	10156.940430
3425.473633	10318.779297
3424.221680	9995.363281
3422.969727	10173.140625
3421.716797	10300.952148
3420.463867	10257.098633
3419.210938	10297.056641
3417.958008	10187.391602
3416.704102	10191.448242
3415.450195	10197.496094
3414.196289	10135.757813
3412.942383	10151.780273
3411.687500	10227.583008
3410.433594	10329.259766
3409.178711	10315.352539
3407.922852	10132.149414
3406.667969	10359.243164
3405.412109	10199.992188
3404.156250	10281.668945
3402.900391	10227.975586
3401.643555	10335.484375
3400.386719	10170.387695
3399.129883	10323.615234
3397.873047	10256.031250
3396.616211	10240.170898
3395.358398	10283.957031
3394.100586	10206.479492
3392.842773	10200.572266
3391.583984	10282.089844
3390.326172	10305.966797
3389.067383	10220.597656
3387.808594	10401.350586
3386.548828	10274.301758
3385.289063	10242.581055
3384.030273	10222.779297
3382.769531	10333.944336
3381.509766	10260.566406
3380.249023	10401.433594
3378.988281	10387.564453
3377.727539	10284.475586
3376.466797	10084.290039
3375.205078	10300.398438
3373.943359	10197.382813
3372.681641	10248.943359
3371.419922	10371.794922
3370.157227	10072.755859
3368.894531	10322.320313
3367.631836	10326.301758
3366.369141	10308.509766
3365.105469	10215.521484
3363.842773	10411.444336
3362.578125	10296.710938
3361.314453	10449.031250
3360.050781	10403.543945
3358.786133	10379.822266
3357.521484	10338.318359
3356.255859	10334.380859
3354.991211	10259.308594
3353.725586	10358.118164
3352.459961	10247.514648
3351.194336	10267.292969
3349.927734	10219.931641
3348.661133	10259.448242
3347.394531	10289.081055
3346.127930	10261.473633
3344.860352	10269.390625
3343.593750	10300.975586
3342.326172	10231.963867
3341.057617	10464.672852
3339.790039	10366.083008
3338.521484	10462.669922
3337.252930	10413.384766
3335.984375	10515.836914
3334.714844	10417.309570
3333.446289	10273.518555
3332.176758	10251.875000
3330.906250	10277.491211
3329.636719	10545.222656
3328.366211	10358.215820
3327.095703	10393.634766
3325.825195	10240.171875
3324.554688	10200.852539
3323.283203	10578.472656
3322.011719	10316.916992
3320.740234	10356.239258
3319.467773	10497.751953
3318.195313	10597.943359
3316.922852	10480.007813
3315.650391	10358.188477
3314.377930	10366.039063
3313.104492	10401.376953
3311.831055	10456.333008
3310.557617	10526.971680
3309.283203	10487.681641
3308.009766	10544.550781
3306.735352	10511.157227
3305.460938	10556.231445
3304.185547	10534.612305
3302.911133	10403.205078
3301.635742	10465.915039
3300.359375	10403.166992
3299.083984	10601.059570
3297.807617	10555.940430
3296.531250	10426.610352
3295.254883	10510.795898
3293.978516	10336.487305
3292.701172	10508.751953
3291.423828	10671.164063
3290.146484	10561.501953
3288.869141	10494.924805
3287.590820	10402.943359
3286.312500	10553.514648
3285.034180	10559.326172
3283.754883	10502.574219
3282.476563	10590.489258
3281.197266	10479.030273
3279.917969	10551.284180
3278.637695	10519.970703
3277.357422	10568.749023
3276.078125	10537.443359
3274.796875	10439.765625
3273.516602	10504.147461
3272.235352	10638.764648
3270.954102	10570.391602
3269.672852	10548.868164
3268.391602	10624.880859
3267.109375	10535.095703
3265.827148	10507.739258
3264.544922	10636.351563
3263.262695	10532.969727
3261.979492	10478.345703
3260.696289	10657.545898
3259.413086	10417.858398
3258.128906	10373.023438
3256.845703	10548.245117
3255.561523	10450.835938
3254.277344	10370.982422
3252.992188	10489.665039
3251.707031	10686.131836
3250.422852	10425.355469
3249.136719	10510.892578
3247.851563	10567.226563
3246.565430	10333.840820
3245.279297	10598.183594
3243.993164	10570.895508
3242.707031	10636.888672
3241.419922	10621.258789
3240.132813	10491.031250
3238.845703	10562.827148
3237.557617	10611.293945
3236.270508	10395.723633
3234.982422	10611.124023
3233.694336	10651.791016
3232.405273	10337.384766
3231.116211	10626.384766
3229.827148	10694.175781
3228.538086	10571.909180
3227.249023	10465.199219
3225.958984	10565.932617
3224.668945	10501.898438
3223.378906	10505.705078
3222.087891	10621.869141
3220.797852	10462.953125
3219.506836	10569.397461
3218.215820	10664.184570
3216.923828	10549.872070
3215.631836	10820.745117
3214.339844	10545.839844
3213.047852	10495.458008
3211.755859	10653.996094
3210.462891	10613.281250
3209.169922	10570.647461
3207.876953	10665.285156
3206.583008	10495.091797
3205.289063	10587.774414
3203.995117	10512.331055
3202.701172	10575.998047
3201.407227	10572.043945
3200.112305	10618.294922
3198.817383	10550.624023
3197.521484	10731.975586
3196.226563	10619.920898
3194.930664	10660.337891
3193.634766	10604.283203
3192.338867	10592.610352
3191.041992	10559.728516
3189.745117	10557.708008
3188.448242	10553.759766
3187.151367	10528.612305
3185.854492	10542.011719
3184.556641	10628.613281
3183.258789	10678.584961
3181.959961	10612.989258
3180.662109	10649.465820
3179.363281	10599.299805
3178.064453	10564.550781
3176.764648	10539.435547
3175.465820	10620.146484
3174.166016	10810.468750
3172.866211	10598.769531
3171.565430	10646.732422
3170.265625	10654.304688
3168.964844	10490.807617
3167.664063	10623.318359
3166.362305	10663.552734
3165.061523	10632.694336
3163.759766	10651.783203
3162.458008	10557.569336
3161.155273	10686.097656
3159.853516	10626.463867
3158.550781	10524.630859
3157.248047	10679.953125
3155.944336	10424.674805
3154.640625	10706.546875
3153.337891	10698.741211
3152.033203	10664.094727
3150.729492	10610.291992
3149.424805	10615.923828
3148.120117	10554.484375
3146.815430	10699.980469
3145.509766	10494.886719
3144.205078	10649.912109
3142.899414	10663.187500
3141.592773	10636.253906
3140.287109	10622.729492
3138.980469	10768.041016
3137.673828	10733.448242
3136.367188	10742.866211
3135.059570	10595.451172
3133.752930	10748.302734
3132.445313	10755.798828
3131.136719	10711.682617
3129.829102	10730.647461
3128.520508	10726.676758
3127.211914	10667.306641
3125.902344	10657.618164
3124.593750	10760.599609
3123.284180	10634.432617
3121.974609	10710.653320
3120.664063	10697.145508
3119.354492	10737.069336
3118.043945	10717.836914
3116.733398	10622.314453
3115.421875	10585.947266
3114.111328	10742.166016
3112.799805	10734.382813
3111.488281	10795.215820
3110.175781	10726.446289
3108.864258	10804.403320
3107.551758	10756.610352
3106.238281	10710.740234
3104.925781	10889.570313
3103.612305	10685.680664
3102.298828	10759.760742
3100.985352	10706.310547
3099.671875	10801.287109
3098.357422	10850.571289
3097.042969	10797.132813
3095.727539	10637.227539
3094.413086	10749.252930
3093.097656	10648.342773
3091.782227	10809.732422
3090.466797	10876.055664
3089.150391	10739.083008
3087.833984	10856.675781
3086.517578	10679.879883
3085.201172	10618.967773
3083.883789	10793.460938
3082.566406	10704.081055
3081.249023	10772.229492
3079.931641	10842.247070
3078.613281	10817.398438
3077.294922	10800.144531
3075.976563	10841.674805
3074.658203	10892.666016
3073.338867	10792.011719
3072.019531	10763.404297
3070.700195	10816.274414
3069.379883	10871.018555
3068.060547	10974.981445
3066.740234	10757.006836
3065.418945	10779.545898
3064.098633	10889.142578
3062.777344	10934.355469
3061.456055	10922.788086
3060.134766	11036.076172
3058.812500	10882.643555
3057.491211	10910.801758
3056.167969	10899.245117
3054.845703	10855.559570
3053.523438	11065.131836
3052.200195	10921.286133
3050.876953	10890.843750
3049.552734	10884.966797
3048.229492	11020.720703
3046.905273	10986.499023
3045.580078	10844.692383
3044.255859	11012.458984
3042.930664	10931.083008
3041.605469	11081.788086
3040.280273	11004.201172
3038.955078	11009.622070
3037.628906	11126.284180
3036.302734	11041.191406
3034.976563	11027.752930
3033.649414	10999.243164
3032.322266	11049.873047
3030.995117	10976.161133
3029.667969	11141.657227
3028.339844	11096.199219
3027.012695	11022.518555
3025.684570	11229.317383
3024.355469	11138.702148
3023.027344	10969.098633
3021.698242	11181.429688
3020.369141	11269.546875
3019.039063	10992.832031
3017.708984	11178.712891
3016.378906	10990.465820
3015.048828	11078.549805
3013.718750	11044.467773
3012.387695	11384.237305
3011.056641	11188.581055
3009.725586	11265.289063
3008.393555	11317.559570
3007.062500	11411.107422
3005.730469	11232.485352
3004.397461	11205.920898
3003.065430	11333.202148
3001.732422	11469.812500
3000.399414	11550.109375
2999.065430	11397.879883
2997.732422	11676.866211
2996.398438	11415.963867
2995.064453	11662.981445
2993.729492	11756.275391
2992.395508	11594.784180
2991.060547	11721.763672
2989.724609	11786.904297
2988.389648	11973.702148
2987.053711	11948.925781
2985.717773	12101.935547
2984.381836	12026.625977
2983.044922	12074.805664
2981.708984	12007.010742
2980.372070	12085.091797
2979.034180	12114.535156
2977.697266	12409.388672
2976.359375	12528.458984
2975.021484	12490.533203
2973.682617	12624.485352
2972.344727	12633.248047
2971.005859	12462.739258
2969.666016	12684.366211
2968.327148	12696.842773
2966.987305	12810.093750
2965.647461	13121.085938
2964.307617	12986.090820
2962.967773	12959.328125
2961.626953	12943.763672
2960.286133	13021.428711
2958.944336	13113.975586
2957.603516	13290.354492
2956.261719	13190.882813
2954.919922	13160.381836
2953.577148	13280.767578
2952.235352	13313.577148
2950.892578	13394.784180
2949.549805	13660.254883
2948.206055	13570.129883
2946.863281	13318.145508
2945.519531	13633.708008
2944.174805	13487.833984
2942.831055	13620.982422
2941.486328	13359.882813
2940.141602	13533.902344
2938.796875	13490.386719
2937.451172	13448.745117
2936.105469	13407.119141
2934.759766	13580.992188
2933.414063	13539.355469
2932.067383	13365.894531
2930.720703	13433.849609
2929.374023	13512.915039
2928.027344	13397.088867
2926.679688	13296.149414
2925.332031	13438.266602
2923.984375	13302.118164
2922.635742	13355.166992
2921.287109	13423.027344
2919.938477	13661.395508
2918.589844	13625.384766
2917.240234	13459.681641
2915.890625	13347.766602
2914.541016	13332.208984
2913.191406	13468.508789
2911.840820	13373.319336
2910.490234	13348.507813
2909.139648	13551.350586
2907.789063	13389.583008
2906.437500	13547.936523
2905.085938	13539.755859
2903.734375	13675.825195
2902.381836	13813.690430
2901.029297	13746.304688
2899.676758	13714.061523
2898.324219	13704.003906
2896.970703	14072.696289
2895.617188	13731.926758
2894.263672	14113.396484
2892.910156	14171.585938
2891.555664	14216.829102
2890.201172	14202.991211
2888.846680	14035.990234
2887.491211	14201.158203
2886.135742	14072.958984
2884.780273	13924.522461
2883.424805	14113.584961
2882.068359	14116.370117
2880.712891	14062.013672
2879.355469	14011.363281
2877.999023	13724.890625
2876.641602	14068.545898
2875.284180	13940.566406
2873.926758	13788.696289
2872.569336	13697.641602
2871.210938	13518.266602
2869.852539	13521.156250
2868.494141	13529.564453
2867.134766	13376.080078
2865.775391	13196.904297
2864.416016	13348.805664
2863.056641	13349.883789
2861.696289	13157.948242
2860.335938	13140.682617
2858.975586	13182.223633
2857.614258	13253.142578
2856.253906	13050.351563
2854.892578	12935.787109
2853.530273	12944.284180
2852.168945	12912.390625
2850.806641	13106.257813
2849.444336	13074.344727
2848.082031	13057.120117
2846.718750	12931.678711
2845.355469	12941.996094
2843.992188	12851.462891
2842.627930	13026.779297
2841.264648	12850.119141
2839.900391	12994.213867
2838.535156	12727.852539
2837.170898	12976.325195
2835.805664	12851.089844
2834.440430	12722.240234
2833.075195	12902.830078
2831.708984	12786.832031
2830.342773	12930.738281
2828.976563	12867.837891
2827.609375	12751.912109
2826.243164	12809.779297
2824.875977	12734.137695
2823.507813	12971.148438
2822.140625	12902.815430
2820.772461	12721.203125
2819.404297	13045.778320
2818.035156	12694.316406
2816.666992	12832.473633
2815.297852	12857.360352
2813.928711	12904.144531
2812.558594	12821.310547
2811.189453	12784.131836
2809.819336	12962.275391
2808.448242	13021.770508
2807.078125	12968.158203
2805.707031	12781.444336
2804.335938	12897.457031
2802.963867	12940.509766
2801.592773	12854.147461
2800.220703	13032.029297
2798.848633	13058.631836
2797.475586	12988.687500
2796.102539	12967.938477
2794.729492	13023.667969
2793.356445	12891.876953
2791.982422	12789.256836
2790.609375	12937.789063
2789.234375	13131.745117
2787.860352	12967.291992
2786.485352	12901.106445
2785.110352	13156.774414
2783.735352	13045.128906
2782.360352	13033.490234
2780.984375	12990.964844
2779.608398	13248.228516
2778.231445	12933.207031
2776.855469	13250.311523
2775.478516	12993.514648
2774.101563	13096.266602
2772.723633	12928.536133
2771.346680	13085.699219
2769.968750	13046.852539
2768.589844	13251.092773
2767.211914	13074.391602
2765.833008	13138.924805
2764.454102	13415.541016
2763.075195	13039.529297
2761.695313	13167.455078
2760.315430	13324.320313
2758.935547	13169.546875
2757.554688	13163.345703
2756.174805	13245.875977
2754.793945	13196.210938
2753.412109	13218.967773
2752.031250	13245.334961
2750.649414	13331.399414
2749.267578	13359.541992
2747.884766	13548.642578
2746.502930	13245.810547
2745.120117	13198.016602
2743.736328	13399.689453
2742.353516	13247.062500
2740.969727	13260.729492
2739.585938	13279.808594
2738.202148	13474.080078
2736.817383	13211.400391
2735.432617	13452.549805
2734.047852	13560.024414
2732.662109	13319.137695
2731.277344	13578.166016
2729.891602	13405.922852
2728.504883	13648.597656
2727.119141	13431.323242
2725.732422	13383.614258
2724.345703	13579.279297
2722.958008	13560.395508
2721.571289	13462.233398
2720.183594	13607.322266
2718.794922	13714.527344
2717.407227	13668.616211
2716.018555	13624.522461
2714.629883	13468.834961
2713.241211	13534.584961
2711.851563	13774.856445
2710.461914	13649.813477
2709.072266	13602.166016
2707.681641	13639.060547
2706.291016	13672.343750
2704.900391	13583.371094
2703.509766	13728.085938
2702.119141	13815.240234
2700.727539	13950.868164
2699.334961	13863.703125
2697.943359	13746.041016
2696.550781	13847.485352
2695.158203	13853.741211
2693.765625	13791.789063
2692.372070	13905.723633
2690.979492	13841.990234
2689.584961	14052.734375
2688.191406	13913.669922
2686.796875	13900.177734
2685.402344	13969.156250
2684.007813	14018.390625
2682.613281	13999.506836
2681.217773	14077.381836
2679.822266	14002.960938
2678.425781	14086.175781
2677.030273	14221.286133
2675.633789	14003.655273
2674.237305	14017.010742
2672.839844	14091.207031
2671.442383	14092.013672
2670.044922	14048.098633
2668.647461	14276.055664
2667.249023	14292.917969
2665.850586	14107.748047
2664.452148	14135.359375
2663.053711	14227.295898
2661.654297	14126.224609
2660.254883	14073.424805
2658.855469	14159.958984
2657.455078	14187.529297
2656.054688	14282.932617
2654.654297	14256.916016
2653.252930	14250.540039
2651.852539	14360.146484
2650.451172	14314.503906
2649.048828	14158.295898
2647.647461	14431.913086
2646.245117	14470.078125
2644.842773	14310.363281
2643.439453	14382.397461
2642.037109	14327.890625
2640.633789	14394.547852
2639.229492	14523.517578
2637.826172	14655.997070
2636.421875	14462.601563
2635.017578	14347.605469
2633.613281	14549.449219
2632.208008	14409.568359
2630.802734	14501.018555
2629.397461	14626.226563
2627.991211	14657.132813
2626.584961	14391.099609
2625.178711	14697.573242
2623.772461	14858.187500
2622.365234	14764.633789
2620.958008	14788.371094
2619.550781	14618.488281
2618.142578	14707.952148
2616.735352	14669.540039
2615.326172	14686.173828
2613.917969	14605.184570
2612.508789	14696.351563
2611.099609	14597.648438
2609.690430	14726.029297
2608.281250	14593.662109
2606.871094	14750.361328
2605.460938	14807.723633
2604.049805	14788.849609
2602.639648	14745.173828
2601.228516	14852.108398
2599.817383	14794.265625
2598.405273	14881.666016
2596.993164	14800.819336
2595.581055	14971.385742
2594.168945	14920.641602
2592.755859	14880.534180
2591.342773	14992.596680
2589.929688	15000.249023
2588.516602	14938.923828
2587.102539	14974.874023
2585.688477	14945.397461
2584.273438	14875.280273
2582.859375	14990.740234
2581.444336	14996.612305
2580.028320	14993.649414
2578.613281	15041.903320
2577.197266	15049.525391
2575.781250	15283.115234
2574.365234	15181.251953
2572.948242	15342.368164
2571.531250	15208.773438
2570.114258	15371.583008
2568.696289	15430.272461
2567.278320	15379.612305
2565.860352	15064.526367
2564.442383	15225.470703
2563.023438	15315.859375
2561.604492	15420.307617
2560.185547	15283.377930
2558.766602	15398.356445
2557.346680	15349.527344
2555.926758	15555.993164
2554.505859	15366.336914
2553.084961	15363.295898
2551.665039	15384.888672
2550.243164	15497.946289
2548.822266	15623.270508
2547.400391	15713.375000
2545.978516	15624.119141
2544.555664	15733.521484
2543.133789	15742.708008
2541.710938	15688.636719
2540.287109	15725.934570
2538.864258	15870.353516
2537.440430	15756.583008
2536.016602	15690.258789
2534.591797	15795.980469
2533.167969	15863.049805
2531.743164	15787.968750
2530.317383	15619.940430
2528.892578	15916.764648
2527.466797	15846.975586
2526.041016	15838.576172
2524.614258	15833.684570
2523.187500	15863.844727
2521.760742	15941.300781
2520.333984	15981.936523
2518.906250	16068.093750
2517.479492	16038.641602
2516.050781	16165.020508
2514.623047	16200.325195
2513.194336	16111.358398
2511.765625	16083.666992
2510.336914	16036.742188
2508.907227	16266.185547
2507.477539	16233.231445
2506.047852	16355.893555
2504.617188	16205.816406
2503.186523	16230.563477
2501.755859	16290.247070
2500.325195	16451.230469
2498.893555	16479.404297
2497.461914	16394.060547
2496.030273	16216.212891
2494.597656	16399.771484
2493.166016	16440.148438
2491.732422	16304.272461
2490.299805	16494.681641
2488.866211	16508.847656
2487.432617	16509.058594
2485.999023	16558.085938
2484.564453	16443.234375
2483.130859	16722.304688
2481.695313	16314.731445
2480.260742	16693.015625
2478.825195	16686.216797
2477.389648	16763.007813
2475.954102	16622.130859
2474.517578	16829.458984
2473.081055	16657.296875
2471.644531	16448.660156
2470.207031	16897.714844
2468.770508	16560.400391
2467.332031	16795.353516
2465.894531	16943.279297
2464.456055	16811.275391
2463.017578	16979.992188
2461.579102	17014.843750
2460.140625	16846.419922
2458.701172	17018.500000
2457.261719	16933.496094
2455.821289	17136.742188
2454.380859	16992.724609
2452.940430	16876.535156
2451.500000	17164.693359
2450.058594	17081.474609
2448.617188	17130.111328
2447.175781	17130.171875
2445.734375	17038.337891
2444.291992	17086.951172
2442.849609	17418.046875
2441.407227	17239.568359
2439.963867	17019.582031
2438.520508	17239.634766
2437.077148	17109.785156
2435.632813	17211.994141
2434.188477	17142.787109
2432.744141	17438.789063
2431.299805	17187.873047
2429.854492	17321.123047
2428.409180	17404.158203
2426.963867	17452.572266
2425.517578	17611.621094
2424.071289	17490.564453
2422.625000	17334.988281
2421.177734	17417.933594
2419.730469	17499.117188
2418.283203	17428.265625
2416.835938	17512.867188
2415.387695	17569.806641
2413.939453	17776.908203
2412.491211	17728.490234
2411.041992	17645.582031
2409.593750	17645.513672
2408.143555	17554.027344
2406.693359	17767.818359
2405.244141	17814.277344
2403.794922	17646.958984
2402.343750	17781.320313
2400.892578	17932.857422
2399.441406	17955.123047
2397.990234	17948.097656
2396.539063	18240.720703
2395.085938	17877.230469
2393.634766	18076.792969
2392.181641	17988.853516
2390.728516	17988.705078
2389.275391	17954.148438
2387.822266	17929.923828
2386.369141	18206.660156
2384.914063	17726.757813
2383.460938	18054.992188
2382.005859	18231.851563
2380.550781	18293.507813
2379.095703	18490.861328
2377.640625	18183.144531
2376.183594	18351.244141
2374.728516	18127.806641
2373.271484	18246.066406
2371.814453	18419.201172
2370.357422	18298.835938
2368.900391	18350.080078
2367.443359	18632.863281
2365.986328	18231.279297
2364.527344	18340.798828
2363.068359	18542.841797
2361.611328	18518.568359
2360.152344	18583.410156
2358.693359	18444.351563
2357.232422	18545.150391
2355.773438	18815.445313
2354.312500	18815.107422
2352.851563	18679.535156
2351.392578	18634.724609
2349.931641	18711.421875
2348.468750	18593.056641
2347.007813	18816.830078
2345.546875	18667.705078
2344.083984	18922.148438
2342.621094	18673.914063
2341.158203	18808.615234
2339.695313	18927.880859
2338.232422	18761.794922
2336.769531	18933.972656
2335.304688	18918.228516
2333.839844	18861.513672
2332.375000	19016.494141
2330.910156	19132.158203
2329.445313	19206.820313
2327.980469	18877.125000
2326.515625	19233.244141
2325.048828	19217.455078
2323.582031	19176.097656
2322.115234	19090.433594
2320.648438	19142.853516
2319.181641	18881.718750
2317.714844	19235.699219
2316.246094	19146.681641
2314.779297	19222.884766
2313.310547	19363.755859
2311.841797	19084.109375
2310.373047	19155.169922
2308.904297	19272.144531
2307.433594	19217.244141
2305.964844	19393.687500
2304.494141	19185.734375
2303.023438	19484.527344
2301.552734	19283.435547
2300.082031	19276.169922
2298.611328	19540.779297
2297.138672	19081.566406
2295.667969	19692.603516
2294.195313	19714.126953
2292.722656	19565.857422
2291.250000	19410.855469
2289.777344	19507.093750
2288.302734	19481.123047
2286.830078	19594.271484
2285.355469	19419.029297
2283.880859	19627.107422
2282.408203	19672.337891
2280.931641	19688.730469
2279.457031	19761.044922
2277.982422	19568.996094
2276.505859	19604.033203
2275.029297	19625.503906
2273.554688	19784.130859
2272.078125	19820.792969
2270.599609	19808.349609
2269.123047	19924.531250
2267.646484	20093.119141
2266.167969	20288.707031
2264.689453	19875.318359
2263.210938	19981.244141
2261.732422	20147.990234
2260.253906	20149.013672
2258.775391	19981.035156
2257.294922	20205.125000
2255.814453	20319.318359
2254.333984	20220.652344
2252.853516	20079.806641
2251.373047	20008.238281
2249.892578	20331.685547
2248.412109	20192.585938
2246.929688	20156.468750
2245.447266	20351.476563
2243.964844	20279.919922
2242.482422	20243.802734
2241.000000	20359.433594
2239.517578	20267.689453
2238.033203	20406.859375
2236.548828	20700.986328
2235.066406	20653.023438
2233.582031	20519.181641
2232.095703	20355.082031
2230.611328	20569.851563
2229.126953	20397.388672
2227.640625	20558.207031
2226.154297	20560.800781
2224.667969	20585.259766
2223.181641	20542.433594
2221.695313	20597.152344
2220.208984	20732.544922
2218.720703	20662.818359
2217.234375	20897.291016
2215.746094	20856.119141
2214.257813	20826.722656
2212.769531	20810.771484
2211.279297	20811.617188
2209.791016	21012.244141
2208.300781	20776.378906
2206.812500	20903.089844
2205.322266	20888.810547
2203.832031	20908.087891
2202.341797	20981.023438
2200.849609	21020.392578
2199.359375	21029.568359
2197.867188	21087.345703
2196.375000	21141.748047
2194.882813	21103.978516
2193.390625	21222.005859
2191.898438	21115.566406
2190.404297	21431.126953
2188.912109	21160.625000
2187.417969	21404.074219
2185.923828	21157.111328
2184.429688	21244.863281
2182.935547	21406.181641
2181.439453	21319.914063
2179.945313	21275.484375
2178.449219	21448.396484
2176.953125	21546.025391
2175.458984	21483.189453
2173.960938	21488.878906
2172.464844	21482.873047
2170.968750	21647.210938
2169.470703	21689.593750
2167.972656	21578.376953
2166.474609	21432.152344
2164.976563	21736.535156
2163.478516	21675.421875
2161.980469	21681.054688
2160.480469	21805.087891
2158.982422	21862.376953
2157.482422	21756.273438
2155.982422	21741.878906
2154.482422	21839.134766
2152.980469	21743.091797
2151.480469	21708.718750
2149.978516	21517.814453
2148.476563	21954.691406
2146.974609	21827.070313
2145.472656	21771.064453
2143.970703	21991.302734
2142.468750	21887.039063
2140.964844	22187.001953
2139.462891	22142.605469
2137.958984	22083.261719
2136.455078	22383.000000
2134.949219	22233.882813
2133.445313	21963.525391
2131.941406	22108.601563
2130.435547	22095.824219
2128.929688	22033.234375
2127.423828	22076.925781
2125.917969	22143.837891
2124.412109	22363.406250
2122.906250	22370.498047
2121.398438	22276.386719
2119.890625	22165.728516
2118.382813	22332.044922
2116.875000	22498.294922
2115.367188	22376.050781
2113.859375	22431.183594
2112.349609	22393.503906
2110.841797	22476.769531
2109.332031	22733.910156
2107.822266	22722.683594
2106.312500	22757.816406
2104.800781	22554.576172
2103.291016	22763.494141
2101.779297	22537.167969
2100.269531	22802.246094
2098.757813	22537.962891
2097.246094	22804.583984
2095.732422	22475.927734
2094.220703	22593.687500
2092.707031	22675.044922
2091.195313	22620.882813
2089.681641	22956.591797
2088.167969	22747.142578
2086.654297	22735.927734
2085.138672	22770.939453
2083.625000	22857.105469
2082.109375	22901.978516
2080.593750	22828.039063
2079.078125	22895.990234
2077.562500	22960.615234
2076.046875	22833.939453
2074.531250	22990.867188
2073.013672	23108.173828
2071.496094	23029.330078
2069.978516	23093.855469
2068.460938	23057.873047
2066.943359	23287.054688
2065.425781	22954.664063
2063.906250	23325.343750
2062.386719	23198.814453
2060.869141	23254.992188
2059.349609	23238.753906
2057.828125	23211.009766
2056.308594	23232.609375
2054.789063	23487.679688
2053.267578	23450.033203
2051.746094	23410.755859
2050.224609	23447.082031
2048.703125	23486.677734
2047.181641	23426.060547
2045.658203	23426.230469
2044.136719	23539.687500
2042.613281	23477.449219
2041.089844	23415.238281
2039.566406	23287.414063
2038.042969	23589.464844
2036.517578	23568.267578
2034.994141	23570.039063
2033.468750	23519.339844
2031.943359	23835.845703
2030.417969	23740.861328
2028.892578	23731.119141
2027.367188	23552.644531
2025.839844	23572.423828
2024.314453	23775.599609
2022.787109	23693.814453
2021.259766	23615.335938
2019.732422	23697.269531
2018.203125	23613.912109
2016.675781	23661.455078
2015.146484	23905.246094
2013.619141	23933.087891
2012.089844	23831.759766
2010.560547	23967.480469
2009.029297	23954.431641
2007.500000	23871.130859
2005.968750	24018.193359
2004.439453	24143.960938
2002.908203	24044.339844
2001.376953	24024.750000
1999.843750	24183.082031
1998.312500	24166.734375
1996.781250	24036.183594
1995.248047	24171.574219
1993.714844	24143.818359
1992.181641	24062.263672
1990.648438	24226.908203
1989.115234	24236.640625
1987.580078	24427.251953
1986.044922	24122.496094
1984.511719	24417.298828
1982.976563	24356.951172
1981.441406	24397.578125
1979.904297	24260.746094
1978.369141	24141.869141
1976.832031	24441.244141
1975.294922	24333.765625
1973.759766	24543.513672
1972.220703	24551.519531
1970.683594	24440.828125
1969.146484	24391.953125
1967.607422	24544.628906
1966.068359	24476.251953
1964.531250	24482.630859
1962.992188	24552.353516
1961.451172	24730.847656
1959.912109	24379.976563
1958.371094	24821.400391
1956.832031	24897.482422
1955.291016	24499.730469
1953.750000	24551.511719
1952.208984	24473.513672
1950.666016	24539.869141
1949.125000	24779.671875
1947.582031	24878.355469
1946.039063	24573.460938
1944.496094	24693.205078
1942.953125	24699.503906
1941.410156	24971.416016
1939.865234	24802.767578
1938.322266	24737.798828
1936.777344	24760.263672
1935.232422	24740.640625
1933.687500	24890.912109
1932.142578	24965.091797
1930.595703	24803.111328
1929.050781	24663.832031
1927.503906	24891.589844
1925.957031	24818.617188
1924.410156	24988.072266
1922.863281	24898.951172
1921.314453	24987.548828
1919.767578	24924.300781
1918.218750	25001.552734
1916.669922	25215.992188
1915.121094	25063.960938
1913.572266	24974.923828
1912.021484	25190.843750
1910.472656	25129.236328
1908.921875	25138.611328
1907.371094	25256.007813
1905.820313	25128.326172
1904.269531	25016.812500
1902.718750	24879.562500
1901.166016	25091.960938
1899.615234	25330.042969
1898.062500	25537.429688
1896.509766	25250.443359
1894.957031	25246.884766
1893.402344	25423.578125
1891.849609	25399.064453
1890.294922	25133.248047
1888.740234	25456.216797
1887.185547	25380.248047
1885.630859	25424.890625
1884.076172	25135.171875
1882.519531	25526.972656
1880.964844	25537.812500
1879.408203	25532.580078
1877.851563	25602.835938
1876.294922	25750.138672
1874.736328	25749.677734
1873.179688	25787.740234
1871.621094	25613.953125
1870.064453	25807.656250
1868.505859	25776.699219
1866.947266	25843.585938
1865.386719	25719.630859
1863.828125	25627.789063
1862.267578	26016.826172
1860.708984	25682.982422
1859.148438	25975.716797
1857.587891	25768.558594
1856.025391	25897.798828
1854.464844	25791.613281
1852.902344	25948.007813
1851.341797	26067.523438
1849.779297	26052.574219
1848.216797	26013.632813
1846.652344	26259.419922
1845.089844	26106.904297
1843.525391	26191.083984
1841.962891	26254.445313
1840.398438	26012.519531
1838.833984	26205.318359
1837.267578	26241.474609
1835.703125	26295.183594
1834.136719	26283.398438
1832.572266	26242.875000
1831.005859	26451.382813
1829.439453	26240.078125
1827.873047	26335.208984
1826.304688	26096.892578
1824.738281	26241.455078
1823.169922	26374.794922
1821.601563	26447.494141
1820.033203	26279.476563
1818.464844	26412.722656
1816.896484	26507.671875
1815.326172	26268.056641
1813.755859	26251.509766
1812.185547	26448.337891
1810.615234	26350.564453
1809.044922	26612.546875
1807.474609	26473.402344
1805.902344	26604.785156
1804.332031	26592.951172
1802.759766	26671.771484
1801.187500	26413.470703
1799.615234	26609.929688
1798.041016	26547.238281
1796.468750	26611.695313
1794.894531	26704.720703
1793.320313	26524.501953
1791.746094	26406.291016
1790.171875	26519.937500
1788.597656	26511.304688
1787.021484	26599.486328
1785.445313	26467.070313
1783.871094	26579.017578
1782.294922	26570.373047
1780.716797	26750.439453
1779.140625	26759.199219
1777.564453	26563.474609
1775.986328	26714.898438
1774.408203	26478.064453
1772.830078	26602.509766
1771.251953	26608.117188
1769.673828	26754.650391
1768.093750	26817.214844
1766.513672	26683.478516
1764.935547	26842.562500
1763.355469	26767.414063
1761.773438	26621.113281
1760.193359	27074.269531
1758.613281	26920.056641
1757.031250	26909.763672
1755.449219	26618.136719
1753.867188	26800.695313
1752.285156	27006.876953
1750.701172	26964.976563
1749.119141	26926.251953
1747.535156	27130.697266
1745.951172	27319.267578
1744.367188	27119.505859
1742.783203	27039.748047
1741.199219	27048.367188
1739.613281	27121.652344
1738.029297	27092.400391
1736.443359	27452.591797
1734.857422	27149.001953
1733.271484	27181.222656
1731.683594	27333.179688
1730.097656	27374.798828
1728.509766	27291.970703
1726.921875	27256.416016
1725.333984	27368.867188
1723.746094	27287.662109
1722.158203	27355.992188
1720.568359	27480.933594
1718.978516	27654.587891
1717.390625	27228.953125
1715.800781	27500.074219
1714.208984	27783.658203
1712.619141	27710.332031
1711.027344	27765.892578
1709.437500	27643.892578
1707.845703	27718.291016
1706.253906	27811.501953
1704.662109	27863.847656
1703.068359	27784.306641
1701.476563	27704.796875
1699.882813	27928.167969
1698.289063	27903.568359
1696.695313	27704.869141
1695.101563	27898.302734
1693.505859	27895.667969
1691.912109	28184.599609
1690.316406	27957.791016
1688.720703	27768.679688
1687.125000	28101.316406
1685.529297	28072.007813
1683.933594	27953.453125
1682.335938	28223.216797
1680.738281	28137.544922
1679.140625	27956.447266
1677.542969	28312.091797
1675.945313	28278.074219
1674.347656	28189.328125
1672.748047	27972.398438
1671.148438	28484.072266
1669.548828	28309.369141
1667.949219	28430.085938
1666.349609	28225.777344
1664.748047	28262.105469
1663.148438	28438.974609
1661.546875	28425.275391
1659.945313	28662.916016
1658.343750	28435.349609
1656.742188	28321.789063
1655.138672	28375.205078
1653.537109	28428.595703
1651.933594	28801.652344
1650.330078	28447.996094
1648.726563	28627.597656
1647.121094	28819.591797
1645.517578	28500.425781
1643.912109	28598.892578
1642.306641	28730.025391
1640.701172	28700.708984
1639.095703	28819.308594
1637.490234	28883.375000
1635.884766	28718.650391
1634.277344	28762.482422
1632.669922	28650.734375
1631.062500	28716.333984
1629.455078	28907.851563
1627.845703	28780.593750
1626.238281	28687.582031
1624.628906	28619.468750
1623.019531	28838.808594
1621.410156	29131.060547
1619.800781	29014.750000
1618.191406	29104.994141
1616.580078	29128.445313
1614.968750	29102.220703
1613.359375	29148.935547
1611.746094	29020.324219
1610.134766	29012.746094
1608.523438	29206.765625
1606.910156	29090.619141
1605.298828	28802.457031
1603.685547	29501.623047
1602.070313	29362.240234
1600.457031	29294.173828
1598.843750	29267.953125
1597.228516	29481.755859
1595.613281	29056.074219
1593.998047	29402.945313
1592.382813	29563.964844
1590.767578	29395.363281
1589.152344	29673.878906
1587.535156	29762.048828
1585.917969	29429.603516
1584.300781	29536.335938
1582.683594	29541.011719
1581.066406	29768.205078
1579.447266	29899.513672
1577.828125	29610.626953
1576.210938	29902.519531
1574.591797	29780.498047
1572.970703	29755.777344
1571.351563	29724.892578
1569.730469	29777.341797
1568.111328	29922.328125
1566.490234	29809.675781
1564.869141	29835.855469
1563.248047	29741.763672
1561.625000	30128.634766
1560.003906	29962.087891
1558.380859	30017.480469
1556.757813	29801.726563
1555.134766	29943.373047
1553.511719	29835.507813
1551.886719	30015.572266
1550.263672	29992.388672
1548.638672	29973.830078
1547.013672	30132.208984
1545.388672	30287.443359
1543.761719	30304.199219
1542.136719	30356.312500
1540.509766	30283.884766
1538.882813	30214.558594
1537.255859	30434.140625
1535.628906	30463.132813
1534.001953	30367.695313
1532.373047	30344.470703
1530.746094	30244.488281
1529.117188	30403.962891
1527.488281	30431.384766
1525.859375	30385.144531
1524.228516	30515.335938
1522.599609	30485.964844
1520.968750	30540.941406
1519.337891	30634.220703
1517.707031	30465.355469
1516.076172	30518.763672
1514.443359	30533.843750
1512.810547	30731.203125
1511.179688	30813.615234
1509.546875	30892.927734
1507.914063	30865.046875
1506.279297	30993.291016
1504.646484	30839.919922
1503.011719	30853.367188
1501.376953	31016.707031
1499.742188	30623.328125
1498.107422	30934.951172
1496.472656	30807.728516
1494.835938	30981.632813
1493.201172	30987.384766
1491.564453	30997.714844
1489.927734	31247.830078
1488.289063	31236.718750
1486.652344	31159.962891
1485.013672	31390.041016
1483.376953	31546.767578
1481.738281	31434.896484
1480.099609	31439.003906
1478.458984	31461.408203
1476.820313	31683.548828
1475.179688	31733.328125
1473.539063	31994.941406
1471.898438	31557.007813
1470.257813	31969.373047
1468.617188	31885.001953
1466.974609	32027.574219
1465.333984	31845.779297
1463.691406	31860.427734
1462.048828	31922.248047
1460.406250	31818.185547
1458.761719	32135.560547
1457.119141	32127.314453
1455.474609	31977.648438
1453.830078	32343.435547
1452.185547	32040.261719
1450.539063	32164.248047
1448.894531	32285.140625
1447.248047	32395.347656
1445.603516	32338.445313
1443.957031	32387.853516
1442.308594	32382.587891
1440.662109	32451.695313
1439.015625	32435.791016
1437.367188	32181.701172
1435.718750	32602.705078
1434.070313	32545.828125
1432.421875	32355.548828
1430.771484	32800.500000
1429.123047	32711.783203
1427.472656	32982.214844
1425.822266	32620.810547
1424.171875	32800.269531
1422.521484	32581.392578
1420.869141	32772.890625
1419.218750	32773.585938
1417.566406	32946.800781
1415.914063	32749.250000
1414.261719	32908.777344
1412.607422	33157.468750
1410.955078	33056.765625
1409.300781	33240.308594
1407.646484	33324.019531
1405.992188	33140.226563
1404.337891	33214.855469
1402.683594	33148.976563
1401.027344	33451.601563
1399.371094	33148.652344
1397.714844	33310.761719
1396.058594	32974.757813
1394.402344	33316.390625
1392.744141	33531.156250
1391.087891	33392.894531
1389.429688	33180.804688
1387.771484	33595.968750
1386.113281	33204.550781
1384.453125	33357.316406
1382.794922	33430.164063
1381.134766	33493.937500
1379.474609	33663.109375
1377.814453	33341.335938
1376.154297	33490.894531
1374.492188	33742.730469
1372.832031	33597.199219
1371.169922	33558.542969
1369.507813	33584.582031
1367.845703	33678.277344
1366.181641	33707.281250
1364.519531	33706.203125
1362.855469	33649.523438
1361.191406	33585.347656
1359.527344	33829.160156
1357.863281	33798.011719
1356.199219	33757.867188
1354.533203	33828.832031
1352.867188	34082.886719
1351.201172	34279.808594
1349.535156	34344.613281
1347.869141	34298.382813
1346.201172	34385.648438
1344.535156	34057.535156
1342.867188	34474.609375
1341.199219	34110.644531
1339.531250	34322.238281
1337.861328	34395.910156
1336.193359	34282.324219
1334.523438	34399.398438
1332.853516	34407.125000
1331.183594	34549.566406
1329.511719	34877.519531
1327.841797	34741.496094
1326.169922	34758.109375
1324.500000	34856.976563
1322.828125	35024.582031
1321.154297	35079.992188
1319.482422	35078.578125
1317.808594	34905.308594
1316.136719	35156.421875
1314.462891	35129.593750
1312.789063	35262.570313
1311.113281	35271.558594
1309.439453	35380.558594
1307.763672	35158.183594
1306.087891	35652.132813
1304.412109	35655.058594
1302.736328	35650.519531
1301.060547	35823.437500
1299.382813	35874.023438
1297.707031	35906.703125
1296.029297	35998.972656
1294.351563	35982.437500
1292.671875	36094.015625
1290.994141	35915.125000
1289.314453	36252.996094
1287.636719	36258.742188
1285.957031	36571.089844
1284.275391	36164.566406
1282.595703	36500.601563
1280.914063	36253.417969
1279.234375	36702.312500
1277.552734	36773.359375
1275.871094	36609.511719
1274.189453	36552.734375
1272.505859	36628.222656
1270.822266	36991.875000
1269.140625	37055.351563
1267.457031	37215.316406
1265.771484	37004.062500
1264.087891	37000.695313
1262.404297	37193.210938
1260.718750	37198.703125
1259.033203	37530.531250
1257.347656	37328.316406
1255.662109	37332.289063
1253.974609	37189.492188
1252.287109	37359.484375
1250.601563	37510.132813
1248.914063	37743.683594
1247.224609	37522.410156
1245.537109	37698.101563
1243.849609	37824.855469
1242.160156	37648.105469
1240.470703	37461.070313
1238.781250	37598.144531
1237.091797	37819.480469
1235.400391	38045.152344
1233.708984	37711.792969
1232.019531	37820.601563
1230.328125	37852.503906
1228.634766	37868.132813
1226.943359	38003.425781
1225.250000	38162.289063
1223.558594	38210.324219
1221.865234	38314.445313
1220.171875	38036.195313
1218.476563	38395.625000
1216.783203	38325.515625
1215.087891	38279.042969
1213.392578	38620.484375
1211.697266	38612.304688
1210.001953	38621.812500
1208.306641	38730.070313
1206.609375	38627.546875
1204.912109	38859.515625
1203.214844	38703.976563
1201.517578	38775.296875
1199.820313	38986.464844
1198.121094	38823.628906
1196.423828	39055.296875
1194.724609	39147.078125
1193.025391	39212.332031
1191.326172	39170.187500
1189.625000	39370.695313
1187.923828	39600.519531
1186.224609	39403.968750
1184.523438	39373.562500
1182.822266	39506.261719
1181.119141	39478.781250
1179.417969	39659.859375
1177.714844	39996.503906
1176.011719	39810.382813
1174.308594	39788.722656
1172.605469	40117.781250
1170.900391	40049.113281
1169.197266	40027.406250
1167.492188	40086.367188
1165.787109	40369.621094
1164.080078	40320.003906
1162.375000	40375.921875
1160.667969	40420.093750
1158.962891	40634.175781
1157.255859	40590.394531
1155.548828	40473.410156
1153.839844	40849.839844
1152.132813	40671.371094
1150.423828	40876.378906
1148.714844	40800.390625
1147.005859	40980.414063
1145.296875	41003.875000
1143.585938	41049.253906
1141.876953	41417.675781
1140.166016	40901.726563
1138.455078	41443.898438
1136.744141	41255.394531
1135.033203	41303.582031
1133.320313	41564.945313
1131.607422	41618.882813
1129.894531	41715.121094
1128.181641	41646.414063
1126.468750	41803.882813
1124.753906	41792.066406
1123.041016	41854.632813
1121.326172	42071.730469
1119.611328	41994.257813
1117.896484	42287.015625
1116.179688	42423.730469
1114.464844	42120.414063
1112.748047	42380.902344
1111.031250	42278.679688
1109.314453	42148.835938
1107.595703	42732.289063
1105.878906	42956.035156
1104.160156	42868.316406
1102.441406	42467.875000
1100.722656	42642.078125
1099.003906	42640.261719
1097.283203	42937.914063
1095.562500	42904.054688
1093.843750	42825.164063
1092.123047	42901.750000
1090.400391	42696.515625
1088.679688	43198.589844
1086.957031	42952.718750
1085.236328	43122.105469
1083.513672	43034.542969
1081.789063	43533.199219
1080.066406	43442.679688
1078.341797	43246.320313
1076.619141	43479.250000
1074.894531	43667.136719
1073.169922	43430.261719
1071.443359	43761.535156
1069.718750	43901.421875
1067.992188	43825.421875
1066.265625	43871.101563
1064.539063	44271.484375
1062.812500	44101.355469
1061.085938	44055.757813
1059.357422	44215.644531
1057.628906	44359.546875
1055.900391	44381.894531
1054.171875	44483.757813
1052.443359	44482.933594
1050.712891	44895.488281
1048.982422	44336.765625
1047.251953	44910.984375
1045.521484	44852.277344
1043.791016	45132.968750
1042.058594	44776.800781
1040.328125	44830.750000
1038.595703	45075.175781
1036.863281	44875.074219
1035.128906	45526.203125
1033.396484	45073.683594
1031.662109	45241.410156
1029.927734	45263.457031
1028.193359	45131.257813
1026.458984	45457.378906
1024.724609	45073.058594
1022.988281	45473.949219
1021.251953	45650.000000
1019.515625	45497.691406
1017.779297	45364.156250
1016.042969	45222.042969
1014.304688	45475.687500
1012.568359	45647.222656
1010.830078	45548.277344
1009.089844	45754.230469
1007.351563	45994.593750
1005.613281	45953.125000
1003.873047	45572.523438
1002.132813	45956.437500
1000.392578	46008.367188
998.652344	46305.851563
996.910156	46294.496094
995.169922	46064.945313
993.427734	46363.652344
991.685547	46211.664063
989.941406	46437.039063
988.199219	46626.460938
986.455078	46399.933594
984.712891	46445.906250
982.968750	46837.300781
981.222656	46632.363281
979.478516	46801.464844
977.734375	46662.507813
975.988281	46588.058594
974.242188	46762.777344
972.496094	46745.593750
970.748047	46957.410156
969.001953	47171.996094
967.253906	46894.355469
965.505859	47356.300781
963.757813	47268.921875
962.009766	47230.183594
960.259766	47218.621094
958.511719	47135.609375
956.761719	47182.644531
955.011719	47291.082031
953.259766	47508.011719
951.509766	47529.226563
949.757813	47621.808594
948.007813	47503.113281
946.255859	47878.187500
944.501953	47765.191406
942.750000	47850.496094
940.996094	47871.593750
939.244141	47916.914063
937.490234	48237.320313
935.734375	48067.343750
933.980469	48159.605469
932.224609	48451.250000
930.470703	48541.957031
928.714844	48470.296875
926.958984	48664.875000
925.201172	48419.578125
923.445313	49066.578125
921.687500	48696.101563
919.929688	48741.101563
918.171875	48638.191406
916.414063	49330.070313
914.654297	49215.699219
912.894531	48819.992188
911.136719	49384.921875
909.375000	49030.535156
907.615234	48966.019531
905.855469	49064.820313
904.093750	49444.652344
902.332031	49365.890625
900.570313	49241.746094
898.808594	49560.285156
897.044922	49230.484375
895.283203	49775.769531
893.519531	49531.125000
891.755859	49605.507813
889.992188	49542.394531
888.226563	49633.742188
886.462891	49819.953125
884.697266	49703.007813
882.931641	49716.371094
881.166016	49896.773438
879.398438	49689.296875
877.632813	50026.687500
875.865234	49590.078125
874.097656	50347.417969
872.330078	50141.421875
870.562500	50247.964844
868.792969	50206.035156
867.023438	50585.257813
865.253906	50218.304688
863.484375	50416.542969
861.714844	50450.863281
859.943359	50493.640625
858.173828	50582.980469
856.402344	50692.039063
854.628906	50880.066406
852.857422	50729.425781
851.085938	50601.417969
849.312500	50613.062500
847.539063	50669.816406
845.765625	50574.308594
843.992188	50574.671875
842.216797	50735.644531
840.441406	50437.335938
838.667969	50910.914063
836.892578	50673.230469
835.115234	50629.914063
833.339844	50858.246094
831.562500	50837.414063
829.785156	50878.488281
828.007813	51241.628906
826.230469	51049.164063
824.451172	50959.406250
822.673828	50903.417969
820.894531	50969.714844
819.115234	51380.195313
817.335938	51097.992188
815.554688	51098.183594
813.775391	51019.746094
811.994141	51224.898438
810.212891	51219.441406
808.431641	51371.136719
806.648438	51528.375000
804.867188	51574.738281
803.083984	51391.109375
801.300781	51255.222656
799.515625	51517.460938
797.732422	51734.738281
795.947266	51520.394531
794.164063	51702.554688
792.378906	51464.496094
790.591797	51884.601563
788.806641	51996.562500
787.019531	51815.968750
785.234375	52037.023438
783.447266	51906.855469
781.658203	51831.281250
779.871094	51734.765625
778.082031	51905.308594
776.294922	52380.472656
774.505859	51828.332031
772.716797	52171.972656
770.925781	52108.996094
769.136719	52249.925781
767.345703	52065.480469
765.554688	52502.285156
763.763672	52355.539063
761.970703	52312.101563
760.179688	52394.230469
758.386719	52230.859375
756.593750	52707.570313
754.800781	52527.464844
753.005859	52591.343750
751.212891	52482.398438
749.417969	52530.925781
747.623047	52327.320313
745.828125	52657.156250
744.033203	53014.687500
742.236328	52559.152344
740.439453	52698.054688
738.642578	52530.789063
736.845703	52648.761719
735.048828	52756.945313
733.250000	52954.066406
731.451172	52593.648438
729.652344	52708.710938
727.853516	52887.640625
726.054688	52648.328125
724.253906	52670.234375
722.455078	52710.179688
720.654297	53011.113281
718.853516	52776.128906
717.050781	52897.890625
715.250000	52660.253906
713.447266	53021.957031
711.644531	52839.859375
709.841797	53023.882813
708.037109	53144.054688
706.234375	53070.144531
704.429688	52841.070313
702.625000	52909.937500
700.820313	52952.453125
699.013672	52752.625000
697.208984	53152.332031
695.402344	52911.011719
693.595703	52837.238281
691.789063	53134.277344
689.982422	53103.359375
688.173828	52775.125000
686.365234	53080.265625
684.556641	52945.695313
682.748047	52994.988281
680.939453	53062.218750
679.128906	52761.960938
677.318359	53405.132813
675.507813	52725.195313
673.697266	52927.703125
671.886719	53429.625000
670.074219	53165.472656
668.261719	52887.632813
666.449219	52953.363281
664.636719	53253.492188
662.824219	53262.582031
661.009766	52877.433594
659.195313	53007.863281
657.380859	53005.964844
655.566406	53045.386719
653.751953	53021.441406
651.935547	52989.234375
650.119141	52984.574219
648.302734	52924.859375
646.486328	52760.589844
644.669922	53046.250000
642.851563	53059.445313
641.033203	52946.121094
639.214844	53011.570313
637.396484	53270.796875
635.578125	52923.875000
633.757813	52715.863281
631.937500	52613.710938
630.117188	52742.316406
628.296875	52678.640625
626.474609	52700.093750
624.654297	52463.523438
622.832031	52770.410156
621.009766	52994.851563
619.185547	52787.160156
617.363281	52883.968750
615.539063	52685.984375
613.714844	52479.855469
611.890625	52954.867188
610.066406	52761.097656
608.242188	52500.289063
606.416016	52510.738281
604.589844	52292.531250
602.763672	52639.750000
600.937500	52480.453125
599.109375	52523.718750
597.281250	52568.332031
595.453125	52146.558594
593.625000	52634.246094
591.796875	52609.074219
589.966797	52489.609375
588.138672	52351.058594
586.308594	52380.605469
584.478516	52395.105469
582.646484	52607.605469
580.816406	52642.523438
578.984375	52336.187500
577.152344	52376.601563
575.320313	52302.386719
573.486328	52334.601563
571.654297	52317.699219
569.820313	52313.074219
567.986328	52266.191406
566.152344	51941.300781
564.316406	51978.988281
562.482422	52298.648438
560.646484	52457.449219
558.810547	52018.406250
556.974609	51934.871094
555.136719	52161.691406
553.300781	51993.785156
551.462891	51933.425781
549.625000	51754.753906
547.785156	51512.242188
545.947266	51692.664063
544.107422	51432.597656
542.267578	51353.382813
540.427734	51556.808594
538.587891	51180.109375
536.748047	51481.257813
534.906250	51507.996094
533.064453	51035.164063
531.222656	51125.769531
529.378906	51063.003906
527.537109	50735.722656
525.693359	50750.375000
523.849609	51038.925781
522.005859	50995.203125
520.162109	50990.796875
518.316406	50460.605469
516.470703	50387.218750
514.625000	50246.136719
512.779297	50323.140625
510.933594	50294.503906
509.085938	50106.144531
507.238281	50491.679688
505.390625	50335.828125
503.542969	49894.609375
501.695313	50028.371094
499.845703	50232.386719
497.996094	50017.230469
496.146484	49887.316406
494.296875	50053.378906
492.447266	49499.304688
490.595703	49962.519531
488.744141	49762.496094
486.892578	49659.765625
485.041016	49739.292969
483.187500	49825.531250
481.333984	49403.085938
479.480469	49853.554688
477.626953	49590.414063
475.773438	49621.316406
473.917969	49247.800781
472.064453	49094.121094
470.208984	49157.437500
468.351563	48836.800781
466.496094	49096.773438
464.638672	48640.285156
462.783203	48682.093750
460.925781	48657.929688
459.066406	48616.281250
457.208984	48461.636719
455.349609	48527.648438
453.490234	48471.253906
451.630859	48358.410156
449.771484	48179.753906
447.912109	48162.433594
446.050781	47883.125000
444.189453	47890.050781
442.328125	47769.390625
440.466797	47729.335938
438.603516	47534.925781
436.740234	47594.250000
434.876953	47348.957031
433.013672	47618.906250
431.150391	47468.937500
429.285156	47270.757813
427.419922	47301.906250
425.554688	47064.972656
423.689453	47039.867188
421.824219	46787.015625
419.957031	46910.648438
418.089844	46680.699219
416.222656	46726.640625
414.355469	46632.015625
412.488281	46123.914063
410.619141	46436.191406
408.750000	46496.851563
406.880859	46168.312500
405.011719	46004.371094
403.140625	45713.503906
401.269531	45869.148438
399.398438	45442.144531
397.527344	45203.683594
395.656250	45349.976563
393.783203	45468.164063
391.910156	45287.250000
390.037109	45205.187500
388.164063	45205.886719
386.291016	44953.101563
384.416016	44496.351563
382.541016	44729.230469
380.666016	44800.687500
378.791016	44306.937500
376.914063	44193.210938
375.039063	44335.339844
373.162109	43909.949219
371.285156	44235.855469
369.406250	43886.562500
367.529297	43516.121094
365.650391	43413.347656
363.771484	43735.074219
361.892578	43501.921875
360.011719	43220.988281
358.132813	43230.054688
356.251953	43308.242188
354.371094	42862.718750
352.490234	42886.464844
350.607422	42802.589844
348.724609	42730.699219
346.841797	42194.058594
344.958984	42305.542969
343.076172	42263.003906
341.193359	42065.214844
339.308594	42073.160156
337.423828	41675.195313
335.539063	41959.062500
333.652344	41483.066406
331.767578	41330.726563
329.880859	41389.171875
327.994141	41341.585938
326.107422	41068.816406
324.218750	40916.691406
322.330078	40551.441406
320.443359	40772.812500
318.552734	40419.664063
316.664063	40566.859375
314.775391	40519.511719
312.884766	40051.574219
310.994141	40139.234375
309.103516	40084.070313
307.210938	39754.000000
305.320313	39860.160156
303.427734	39748.277344
301.535156	39274.511719
299.642578	39408.433594
297.748047	38928.343750
295.853516	38860.316406
293.960938	38969.160156
292.064453	38829.894531
290.169922	38511.285156
288.275391	38402.515625
286.378906	38372.902344
284.482422	38236.519531
282.585938	37864.277344
280.687500	37656.906250
278.791016	37520.765625
276.892578	37605.957031
274.994141	37489.636719
273.095703	37495.796875
271.195313	37208.437500
269.294922	36933.046875
267.396484	36738.027344
265.494141	36836.417969
263.593750	36663.855469
261.691406	36754.324219
259.791016	36334.734375
257.888672	36189.992188
255.986328	36538.019531
254.082031	35979.503906
252.177734	35891.402344
250.275391	35723.242188
248.371094	35631.292969
246.464844	35601.062500
244.560547	35509.175781
242.654297	35402.898438
240.748047	35147.144531
238.841797	34938.710938
236.935547	34739.542969
235.027344	34611.238281
233.119141	34625.820313
231.210938	34489.730469
229.302734	34242.367188
227.392578	34463.917969
225.484375	33776.765625
223.574219	33719.511719
221.664063	33586.382813
219.751953	33603.769531
217.841797	33685.242188
215.929688	33412.269531
214.017578	33208.710938
212.105469	33081.058594
210.193359	32622.816406
208.279297	32582.890625
206.365234	32484.195313
204.451172	32493.943359
202.537109	32290.847656
200.621094	31950.769531
198.705078	32027.183594
196.789063	31736.896484
194.873047	31836.802734
192.957031	31589.724609
191.039063	31269.728516
189.123047	31398.347656
187.203125	31502.140625
185.285156	31061.183594
183.367188	31102.464844
181.447266	30723.007813
179.527344	30682.300781
177.607422	30392.937500
175.687500	29952.705078
173.765625	30208.906250
171.843750	30303.656250
169.921875	29875.439453
168.000000	29660.695313
166.078125	29407.039063
164.154297	29460.277344
162.230469	29270.455078
160.306641	29044.335938
158.382813	28963.808594
156.457031	28519.662109
154.531250	28500.312500
152.605469	28452.410156
150.679688	28200.755859
148.753906	28235.984375
146.826172	28022.111328
144.898438	27858.914063
142.970703	27931.794922
141.042969	27572.921875
139.113281	27616.019531
137.183594	27550.242188
135.253906	27100.998047
133.324219	26927.851563
131.394531	26674.490234
129.462891	26334.494141
127.531250	26177.162109
125.599609	25767.542969
123.667969	25249.419922
121.734375	24675.904297
119.802734	23611.203125
117.869141	22769.367188
115.935547	21836.125000
114.000000	21188.917969
112.066406	20658.291016
110.130859	20308.753906
108.195313	20287.421875
106.257813	19987.189453
104.322266	19894.933594
102.384766	19496.828125
100.447266	19377.623047
