#Wave		#Intensity
3501.405273	8723.478516
3500.167969	8899.200195
3498.929688	8639.040039
3497.691406	8599.051758
3496.453125	8839.669922
3495.213867	8755.255859
3493.975586	8656.748047
3492.736328	8739.853516
3491.497070	8724.086914
3490.256836	8655.890625
3489.017578	8595.785156
3487.777344	8668.757813
3486.537109	8699.374023
3485.296875	8671.536133
3484.055664	8585.278320
3482.814453	8718.629883
3481.573242	8727.057617
3480.332031	8630.767578
3479.089844	8661.354492
3477.848633	8712.058594
3476.606445	8670.165039
3475.363281	8618.225586
3474.121094	8733.285156
3472.877930	8548.597656
3471.634766	8693.792969
3470.391602	8627.811523
3469.147461	8604.071289
3467.904297	8550.190430
3466.660156	8532.501953
3465.416016	8677.560547
3464.170898	8643.783203
3462.926758	8595.959961
3461.681641	8532.088867
3460.436523	8558.585938
3459.190430	8558.978516
3457.945313	8623.590820
3456.699219	8587.852539
3455.453125	8600.274414
3454.206055	8560.541992
3452.959961	8470.689453
3451.712891	8479.116211
3450.465820	8585.764648
3449.218750	8830.664063
3447.970703	8510.383789
3446.722656	8512.784180
3445.474609	8487.138672
3444.226563	8669.787109
3442.978516	8517.973633
3441.729492	8592.439453
3440.480469	8504.748047
3439.231445	8575.185547
3437.981445	8465.520508
3436.731445	8549.940430
3435.481445	8344.317383
3434.231445	8424.728516
3432.981445	8329.168945
3431.730469	8437.537109
3430.479492	8547.861328
3429.228516	8362.413086
3427.977539	8324.872070
3426.725586	8419.174805
3425.473633	8329.712891
3424.221680	8386.041992
3422.969727	8352.515625
3421.716797	8372.891602
3420.463867	8337.384766
3419.210938	8218.092773
3417.958008	8336.226563
3416.704102	8478.247070
3415.450195	8378.936523
3414.196289	8245.770508
3412.942383	8337.894531
3411.687500	8322.367188
3410.433594	8296.881836
3409.178711	8191.720703
3407.922852	8351.503906
3406.667969	8254.336914
3405.412109	8312.505859
3404.156250	8211.400391
3402.900391	8375.038086
3401.643555	8271.968750
3400.386719	8214.697266
3399.129883	8141.533203
3397.873047	8227.497070
3396.616211	8184.183594
3395.358398	8254.202148
3394.100586	8063.814453
3392.842773	8362.363281
3391.583984	8114.406738
3390.326172	8156.572754
3389.067383	8107.360840
3387.808594	8244.828125
3386.548828	8064.582520
3385.289063	8033.279785
3384.030273	8172.666016
3382.769531	7940.945313
3381.509766	8072.359863
3380.249023	8007.358887
3378.988281	8130.777832
3377.727539	8186.736328
3376.466797	8016.683594
3375.205078	8140.029785
3373.943359	7974.012695
3372.681641	7901.176758
3371.419922	8022.492676
3370.157227	7925.908203
3368.894531	7948.166992
3367.631836	7976.355957
3366.369141	7939.214844
3365.105469	7888.234863
3363.842773	7807.594238
3362.578125	7992.067383
3361.314453	7962.861816
3360.050781	7874.341797
3358.786133	7791.786621
3357.521484	7851.587402
3356.255859	7830.333984
3354.991211	7803.160645
3353.725586	7815.509277
3352.459961	7887.109863
3351.194336	7883.638184
3349.927734	7826.856445
3348.661133	7851.034180
3347.394531	7956.125977
3346.127930	7727.679199
3344.860352	7816.969727
3343.593750	7985.129883
3342.326172	7478.721680
3341.057617	7842.095703
3339.790039	7761.747559
3338.521484	7785.897949
3337.252930	7786.390137
3335.984375	7696.244629
3334.714844	7686.902832
3333.446289	7691.351563
3332.176758	7815.921875
3330.906250	7688.429688
3329.636719	7773.582520
3328.366211	7705.189453
3327.095703	7709.628906
3325.825195	7649.142578
3324.554688	7751.939941
3323.283203	7679.667969
3322.011719	7721.466309
3320.740234	7731.793457
3319.467773	7742.117188
3318.195313	7607.016113
3316.922852	7713.631836
3315.650391	7647.340332
3314.377930	7610.534180
3313.104492	7522.687012
3311.831055	7436.836426
3310.557617	7559.083984
3309.283203	7485.033203
3308.009766	7518.928223
3306.735352	7462.568359
3305.460938	7476.839844
3304.185547	7577.390625
3302.911133	7601.437500
3301.635742	7647.038086
3300.359375	7494.670410
3299.083984	7407.024902
3297.807617	7572.143555
3296.531250	7390.494141
3295.254883	7436.089355
3293.978516	7422.925781
3292.701172	7568.337891
3291.423828	7443.587402
3290.146484	7350.194824
3288.869141	7352.708496
3287.590820	7433.468262
3286.312500	7604.163086
3285.034180	7405.216797
3283.754883	7452.682617
3282.476563	7330.072754
3281.197266	7363.854492
3279.917969	7358.543457
3278.637695	7554.452148
3277.357422	7486.604492
3276.078125	7184.442871
3274.796875	7329.508301
3273.516602	7361.296875
3272.235352	7506.272461
3270.954102	7327.270020
3269.672852	7374.647461
3268.391602	7359.587891
3267.109375	7367.936035
3265.827148	7374.331055
3264.544922	7388.520996
3263.262695	7305.250000
3261.979492	7231.753906
3260.696289	7255.703613
3259.413086	7213.412109
3258.128906	7219.827148
3256.845703	7300.234863
3255.561523	7343.620605
3254.277344	7258.520020
3252.992188	7395.311035
3251.707031	7210.998535
3250.422852	7355.526855
3249.136719	7358.013672
3247.851563	7074.635742
3246.565430	7145.223633
3245.279297	7235.224121
3243.993164	7070.585938
3242.707031	7211.087891
3241.419922	7227.196289
3240.132813	7109.271484
3238.845703	7032.174316
3237.557617	7168.691406
3236.270508	7101.317871
3234.982422	7212.536621
3233.694336	7121.893066
3232.405273	7126.353516
3231.116211	7014.422363
3229.827148	7067.387695
3228.538086	7182.383301
3227.249023	7080.197754
3225.958984	7067.215332
3224.668945	7195.709473
3223.378906	7155.582520
3222.087891	6970.177734
3220.797852	7023.078613
3219.506836	7072.085449
3218.215820	6958.438477
3216.923828	6993.887695
3215.631836	6907.394043
3214.339844	6985.409668
3213.047852	6960.858398
3211.755859	6857.011230
3210.462891	7049.090820
3209.169922	6956.866699
3207.876953	6986.467285
3206.583008	6981.265625
3205.289063	6939.349609
3203.995117	6909.041504
3202.701172	6907.720215
3201.407227	6860.047363
3200.112305	7032.520508
3198.817383	6853.562012
3197.521484	6825.227539
3196.226563	6818.132324
3194.930664	6801.392090
3193.634766	6782.728516
3192.338867	6711.996094
3191.041992	6751.207520
3189.745117	6859.811035
3188.448242	6721.636230
3187.151367	6714.567871
3185.854492	6682.452637
3184.556641	6790.984863
3183.258789	6783.906250
3181.959961	6792.236328
3180.662109	6848.697754
3179.363281	6845.461426
3178.064453	6767.163574
3176.764648	6721.608398
3175.465820	6583.721191
3174.166016	6742.116211
3172.866211	6758.133789
3171.565430	6678.002930
3170.265625	6684.413086
3168.964844	6540.897461
3167.664063	6645.339355
3166.362305	6686.335449
3165.061523	6754.209961
3163.759766	6653.042969
3162.458008	6461.662598
3161.155273	6439.305176
3159.853516	6656.895996
3158.550781	6571.177246
3157.248047	6529.623047
3155.944336	6438.205566
3154.640625	6571.234375
3153.337891	6476.007813
3152.033203	6557.210449
3150.729492	6555.953125
3149.424805	6571.944824
3148.120117	6398.225098
3146.815430	6538.770508
3145.509766	6478.136230
3144.205078	6478.808594
3142.899414	6393.316895
3141.592773	6457.178711
3140.287109	6427.229492
3138.980469	6383.895996
3137.673828	6428.589355
3136.367188	6421.617188
3135.059570	6527.486328
3133.752930	6409.591309
3132.445313	6394.978027
3131.136719	6273.330078
3129.829102	6382.967285
3128.520508	6570.901367
3127.211914	6407.261230
3125.902344	6373.561523
3124.593750	6360.879883
3123.284180	6294.744141
3121.974609	6291.625977
3120.664063	6286.600586
3119.354492	6293.025391
3118.043945	6175.442871
3116.733398	6397.421875
3115.421875	6245.537109
3114.111328	6257.683594
3112.799805	6330.827148
3111.488281	6232.407715
3110.175781	6195.003906
3108.864258	6258.590332
3107.551758	6282.149902
3106.238281	6223.808105
3104.925781	6163.584473
3103.612305	6209.993164
3102.298828	6151.697754
3100.985352	6066.782715
3099.671875	6185.482422
3098.357422	6131.029297
3097.042969	6186.907227
3095.727539	6043.101563
3094.413086	6079.962891
3093.097656	6063.586914
3091.782227	6128.935547
3090.466797	6017.551758
3089.150391	5917.608887
3087.833984	5992.444336
3086.517578	6033.068848
3085.201172	6062.285645
3083.883789	6154.133301
3082.566406	6054.258789
3081.249023	6032.220703
3079.931641	5987.424805
3078.613281	6043.175781
3077.294922	5888.401855
3075.976563	5915.708984
3074.658203	5956.275391
3073.338867	6017.674316
3072.019531	5984.300781
3070.700195	5973.675293
3069.379883	5803.937988
3068.060547	5906.982910
3066.740234	5888.803223
3065.418945	5997.471191
3064.098633	5981.173340
3062.777344	5932.710938
3061.456055	5865.346191
3060.134766	5975.825195
3058.812500	5938.738281
3057.491211	5920.575195
3056.167969	5747.390625
3054.845703	5812.440430
3053.523438	5837.778320
3052.200195	5921.680176
3050.876953	5775.075195
3049.552734	5934.506836
3048.229492	5808.728027
3046.905273	5892.569824
3045.580078	5865.005859
3044.255859	5841.227051
3042.930664	5830.666016
3041.605469	5897.458008
3040.280273	5868.027344
3038.955078	5776.374023
3037.628906	5765.832520
3036.302734	5900.449219
3034.976563	5829.574219
3033.649414	5839.755859
3032.322266	5761.383301
3030.995117	5867.640625
3029.667969	5770.459473
3028.339844	5808.887695
3027.012695	5939.546875
3025.684570	5836.760742
3024.355469	5750.950195
3023.027344	5717.854492
3021.698242	5750.610840
3020.369141	5860.465332
3019.039063	5757.791992
3017.708984	5929.643555
3016.378906	5870.228516
3015.048828	5852.180664
3013.718750	5884.871582
3012.387695	5789.805176
3011.056641	5811.225098
3009.725586	5774.423340
3008.393555	5769.552246
3007.062500	5869.802734
3005.730469	5729.787109
3004.397461	5693.028320
3003.065430	5639.398438
3001.732422	5677.697754
3000.399414	5704.729980
2999.065430	5681.127930
2997.732422	5725.020020
2996.398438	5675.182617
2995.064453	5644.103516
2993.729492	5641.138672
2992.395508	5780.533691
2991.060547	5736.341797
2989.724609	5684.676758
2988.389648	5677.960938
2987.053711	5624.455078
2985.717773	5767.459961
2984.381836	5652.214844
2983.044922	5787.675781
2981.708984	5730.448730
2980.372070	5746.168945
2979.034180	5674.014648
2977.697266	5614.972656
2976.359375	5712.932129
2975.021484	5601.588379
2973.682617	5550.065918
2972.344727	5623.700195
2971.005859	5686.101563
2969.666016	5619.655762
2968.327148	5627.900879
2966.987305	5606.282227
2965.647461	5646.246582
2964.307617	5622.766602
2962.967773	5714.937012
2961.626953	5579.562500
2960.286133	5692.213867
2958.944336	5745.170410
2957.603516	5511.089355
2956.261719	5659.091797
2954.919922	5766.050781
2953.577148	5686.701660
2952.235352	5672.563477
2950.892578	5664.016602
2949.549805	5659.195313
2948.206055	5531.535645
2946.863281	5697.940430
2945.519531	5685.672852
2944.174805	5842.682129
2942.831055	5776.457031
2941.486328	5792.071777
2940.141602	5887.619629
2938.796875	5988.705566
2937.451172	6039.577637
2936.105469	6021.684570
2934.759766	6172.840332
2933.414063	6357.368164
2932.067383	6226.152344
2930.720703	6258.361816
2929.374023	6283.134277
2928.027344	6192.835938
2926.679688	6135.970703
2925.332031	5997.503418
2923.984375	5872.072754
2922.635742	5633.573730
2921.287109	5860.523438
2919.938477	5803.776367
2918.589844	5652.533203
2917.240234	5634.759277
2915.890625	5650.338379
2914.541016	5602.936035
2913.191406	5637.033203
2911.840820	5456.343750
2910.490234	5421.963867
2909.139648	5552.315430
2907.789063	5510.527832
2906.437500	5394.753906
2905.085938	5312.319336
2903.734375	5572.043457
2902.381836	5358.328613
2901.029297	5405.351563
2899.676758	5433.873047
2898.324219	5440.208984
2896.970703	5450.236816
2895.617188	5406.692383
2894.263672	5341.002441
2892.910156	5336.271484
2891.555664	5348.156738
2890.201172	5280.670410
2888.846680	5318.396484
2887.491211	5321.052246
2886.135742	5355.066406
2884.780273	5344.803223
2883.424805	5397.238281
2882.068359	5335.350098
2880.712891	5365.646973
2879.355469	5451.218262
2877.999023	5426.205078
2876.641602	5401.201660
2875.284180	5280.433594
2873.926758	5308.869141
2872.569336	5232.351563
2871.210938	5328.891602
2869.852539	5434.595703
2868.494141	5352.577637
2867.134766	5184.127930
2865.775391	5223.583008
2864.416016	5259.344727
2863.056641	5260.159180
2861.696289	5286.708496
2860.335938	5353.679688
2858.975586	5271.787109
2857.614258	5340.571777
2856.253906	5324.837402
2854.892578	5252.179199
2853.530273	5286.041504
2852.168945	5235.447754
2850.806641	5247.275391
2849.444336	5409.567383
2848.082031	5313.112305
2846.718750	5242.374023
2845.355469	5223.013184
2843.992188	5262.333984
2842.627930	5197.145996
2841.264648	5245.619629
2839.900391	5215.277344
2838.535156	5362.663574
2837.170898	5253.543457
2835.805664	5254.350098
2834.440430	5240.508301
2833.075195	5193.718750
2831.708984	5242.125488
2830.342773	5261.232910
2828.976563	5252.888184
2827.609375	5226.253418
2826.243164	5197.800293
2824.875977	5158.386230
2823.507813	5175.662109
2822.140625	5238.626953
2820.772461	5186.435059
2819.404297	5249.372559
2818.035156	5246.521484
2816.666992	5124.953125
2815.297852	5220.734863
2813.928711	5237.972656
2812.558594	5173.062988
2811.189453	5139.202637
2809.819336	5092.583496
2808.448242	5295.909180
2807.078125	5143.488770
2805.707031	5171.661621
2804.335938	5134.187012
2802.963867	5147.767090
2801.592773	5210.549805
2800.220703	5087.447754
2798.848633	5186.652344
2797.475586	5269.425293
2796.102539	5228.332031
2794.729492	5156.302246
2793.356445	5206.265137
2791.982422	5221.627441
2790.609375	5204.229980
2789.234375	5257.791992
2787.860352	5245.850586
2786.485352	5128.435059
2785.110352	5187.434570
2783.735352	5251.864258
2782.360352	5107.252441
2780.984375	5064.458984
2779.608398	5165.210449
2778.231445	5193.263672
2776.855469	5226.753906
2775.478516	5242.073730
2774.101563	5164.801270
2772.723633	5178.311523
2771.346680	5171.854492
2769.968750	5149.070313
2768.589844	5202.482422
2767.211914	5208.718750
2765.833008	5075.331055
2764.454102	5123.286621
2763.075195	5111.408203
2761.695313	5070.539551
2760.315430	5078.605957
2758.935547	4950.807617
2757.554688	5196.152832
2756.174805	5110.028809
2754.793945	5239.378906
2753.412109	5203.961914
2752.031250	5000.253906
2750.649414	5156.689453
2749.267578	5108.645508
2747.884766	5069.663086
2746.502930	5139.193359
2745.120117	5035.133789
2743.736328	5133.564941
2742.353516	5080.149414
2740.969727	5100.836426
2739.585938	5011.316895
2738.202148	4981.436035
2736.817383	5142.983887
2735.432617	5086.006348
2734.047852	5052.517090
2732.662109	5064.160156
2731.277344	5034.296875
2729.891602	5103.667969
2728.504883	5008.874512
2727.119141	5153.963379
2725.732422	5037.561523
2724.345703	5016.744629
2722.958008	5060.817383
2721.571289	5194.969727
2720.183594	5109.276855
2718.794922	5185.727051
2717.407227	5067.652832
2716.018555	5205.298828
2714.629883	5112.468750
2713.241211	5113.265625
2711.851563	5049.280762
2710.461914	5233.598145
2709.072266	5149.828125
2707.681641	5102.059082
2706.291016	5117.239746
2704.900391	5136.009766
2703.509766	5210.489746
2702.119141	5121.414551
2700.727539	5064.712891
2699.334961	5175.087891
2697.943359	5037.581055
2696.550781	5165.873047
2695.158203	5256.415039
2693.765625	5201.536133
2692.372070	5121.555664
2690.979492	5221.022949
2689.584961	5112.368164
2688.191406	5127.504883
2686.796875	5246.635742
2685.402344	5121.904297
2684.007813	5063.541016
2682.613281	5132.435547
2681.217773	5172.636230
2679.822266	5069.512207
2678.425781	5167.020508
2677.030273	5178.539063
2675.633789	5147.085938
2674.237305	5133.544434
2672.839844	5130.745605
2671.442383	5433.906250
2670.044922	5608.148438
2668.647461	6206.203125
2667.249023	7084.766602
2665.850586	6205.549805
2664.452148	6613.660645
2663.053711	9857.777344
2661.654297	7307.899902
2660.254883	6518.650391
2658.855469	6178.014160
2657.455078	6326.798828
2656.054688	6886.158691
2654.654297	6111.891602
2653.252930	6224.907227
2651.852539	6443.152344
2650.451172	6573.896973
2649.048828	5142.147461
2647.647461	5180.366699
2646.245117	5132.990723
2644.842773	5180.108887
2643.439453	5138.098145
2642.037109	5183.414551
2640.633789	5066.595703
2639.229492	5158.217773
2637.826172	5130.489258
2636.421875	5109.893555
2635.017578	5114.227051
2633.613281	5118.558594
2632.208008	5183.387695
2630.802734	5112.983398
2629.397461	5218.697754
2627.991211	5178.545410
2626.584961	5042.396973
2625.178711	5183.614258
2623.772461	5150.601074
2622.365234	5131.816406
2620.958008	5159.229980
2619.550781	5124.463867
2618.142578	5100.366699
2616.735352	5001.706055
2615.326172	5066.401855
2613.917969	5120.422363
2612.508789	5128.284668
2611.099609	5146.788574
2609.690430	5092.559570
2608.281250	5164.266113
2606.871094	5166.792969
2605.460938	5162.228027
2604.049805	5150.575195
2602.639648	5174.367188
2601.228516	5230.040039
2599.817383	5074.900879
2598.405273	5243.914551
2596.993164	5127.787109
2595.581055	5270.168457
2594.168945	5125.762695
2592.755859	5110.593750
2591.342773	5148.507813
2589.929688	5135.108887
2588.516602	5243.744629
2587.102539	5281.608887
2585.688477	5153.280762
2584.273438	5272.452637
2582.859375	5061.120117
2581.444336	5182.029297
2580.028320	5154.508789
2578.613281	5192.344238
2577.197266	5140.111328
2575.781250	5130.268555
2574.365234	5169.850586
2572.948242	5047.063965
2571.531250	5254.260742
2570.114258	5262.041992
2568.696289	5278.638184
2567.278320	5111.843262
2565.860352	5197.217285
2564.442383	5090.432617
2563.023438	5191.637695
2561.604492	5188.848633
2560.185547	5235.384766
2558.766602	5234.349121
2557.346680	5256.205078
2555.926758	5260.446777
2554.505859	5143.234375
2553.084961	5180.932617
2551.665039	5216.856934
2550.243164	5156.013672
2548.822266	5176.098633
2547.400391	5255.962402
2545.978516	5226.792480
2544.555664	5424.382324
2543.133789	5411.006836
2541.710938	5239.502441
2540.287109	5336.839844
2538.864258	5160.148438
2537.440430	5354.042480
2536.016602	5303.823730
2534.591797	5241.337402
2533.167969	5357.881348
2531.743164	5311.200195
2530.317383	5204.892578
2528.892578	5263.494141
2527.466797	5295.769043
2526.041016	5210.565430
2524.614258	5242.837402
2523.187500	5390.762695
2521.760742	5253.024902
2520.333984	5237.968750
2518.906250	5306.989746
2517.479492	5244.647949
2516.050781	5408.182129
2514.623047	5440.368652
2513.194336	5323.783691
2511.765625	5243.989258
2510.336914	5349.662598
2508.907227	5156.206055
2507.477539	5305.571777
2506.047852	5342.983398
2504.617188	5242.287109
2503.186523	5344.359375
2501.755859	5474.347656
2500.325195	5232.179688
2498.893555	5311.485840
2497.461914	5392.507324
2496.030273	5277.951172
2494.597656	5296.105469
2493.166016	5338.685059
2491.732422	5198.033691
2490.299805	5352.266602
2488.866211	5326.785156
2487.432617	5360.604492
2485.999023	5315.952637
2484.564453	5250.399902
2483.130859	5400.982422
2481.695313	5352.862793
2480.260742	5435.421387
2478.825195	5354.220215
2477.389648	5334.000977
2475.954102	5426.959473
2474.517578	5460.696289
2473.081055	5400.437988
2471.644531	5385.444336
2470.207031	5453.962402
2468.770508	5355.474609
2467.332031	5347.454102
2465.894531	5438.540039
2464.456055	5378.356445
2463.017578	5405.094727
2461.579102	5421.396484
2460.140625	5444.640625
2458.701172	5440.083984
2457.261719	5367.801758
2455.821289	5420.558105
2454.380859	5471.557129
2452.940430	5460.055176
2451.500000	5420.794434
2450.058594	5561.975098
2448.617188	5559.133789
2447.175781	5479.990234
2445.734375	5497.971680
2444.291992	5573.150879
2442.849609	5584.173828
2441.407227	5498.155762
2439.963867	5637.389648
2438.520508	5412.826172
2437.077148	5548.557617
2435.632813	5507.630371
2434.188477	5529.038086
2432.744141	5496.784180
2431.299805	5499.150391
2429.854492	5567.256348
2428.409180	5555.769531
2426.963867	5494.135742
2425.517578	5569.117676
2424.071289	5571.465820
2422.625000	5656.771484
2421.177734	5531.230469
2419.730469	5530.128418
2418.283203	5617.118164
2416.835938	5564.190430
2415.387695	5468.119141
2413.939453	5522.269043
2412.491211	5528.072266
2411.041992	5558.030273
2409.593750	5468.936035
2408.143555	5643.782715
2406.693359	5485.725586
2405.244141	5589.807129
2403.794922	5550.768066
2402.343750	5604.812988
2400.892578	5545.107910
2399.441406	5545.724609
2397.990234	5606.626953
2396.539063	5602.064453
2395.085938	5487.309570
2393.634766	5696.229980
2392.181641	5662.392578
2390.728516	5540.810059
2389.275391	5708.304199
2387.822266	5591.920898
2386.369141	5551.251465
2384.914063	5613.760254
2383.460938	5667.648438
2382.005859	5719.796387
2380.550781	5625.863770
2379.095703	5607.560547
2377.640625	5563.499023
2376.183594	5660.275391
2374.728516	5568.145508
2373.271484	5623.682129
2371.814453	5670.614746
2370.357422	5643.742676
2368.900391	5630.606445
2367.443359	5608.898438
2365.986328	5614.637207
2364.527344	5685.527344
2363.068359	5567.823730
2361.611328	5628.410645
2360.152344	5688.973633
2358.693359	5633.014160
2357.232422	5614.759277
2355.773438	5591.374512
2354.312500	5583.407715
2352.851563	5580.579590
2351.392578	5478.485840
2349.931641	5660.483398
2348.468750	5623.424316
2347.007813	5634.272949
2345.546875	5674.188965
2344.083984	5664.504883
2342.621094	5752.262695
2341.158203	5581.911621
2339.695313	5741.417480
2338.232422	5675.349121
2336.769531	5703.250488
2335.304688	5626.969238
2333.839844	5581.451172
2332.375000	5754.452637
2330.910156	5708.926270
2329.445313	5663.418457
2327.980469	5682.756836
2326.515625	5609.980469
2325.048828	5465.608887
2323.582031	5606.029297
2322.115234	5635.590332
2320.648438	5704.338379
2319.181641	5638.445313
2317.714844	5708.868164
2316.246094	5709.427734
2314.779297	5708.284180
2313.310547	5693.519531
2311.841797	6674.586914
2310.373047	6824.720703
2308.904297	6918.641602
2307.433594	6694.392578
2305.964844	6075.623047
2304.494141	5703.683105
2303.023438	5695.738770
2301.552734	5735.394043
2300.082031	5894.000977
2298.611328	5721.200195
2297.138672	5864.456055
2295.667969	5837.802246
2294.195313	5870.594727
2292.722656	5658.885742
2291.250000	5740.928223
2289.777344	5785.599609
2288.302734	5757.290039
2286.830078	5891.853027
2285.355469	5641.339355
2283.880859	5801.307617
2282.408203	5732.325684
2280.931641	5783.723633
2279.457031	5845.269531
2277.982422	5762.763672
2276.505859	5805.653320
2275.029297	5713.025391
2273.554688	5860.898438
2272.078125	5783.533691
2270.599609	5741.746582
2269.123047	5823.520996
2267.646484	5736.056641
2266.167969	5899.000977
2264.689453	5804.790527
2263.210938	5896.631348
2261.732422	5881.921387
2260.253906	5659.303711
2258.775391	5729.146973
2257.294922	5937.515625
2255.814453	5807.933105
2254.333984	5962.153320
2252.853516	5944.068848
2251.373047	5958.068848
2249.892578	6004.134766
2248.412109	5989.426758
2246.929688	5902.170410
2245.447266	5833.505371
2243.964844	5941.962891
2242.482422	5917.160156
2241.000000	5899.110840
2239.517578	5904.666992
2238.033203	5945.610840
2236.548828	5937.675293
2235.066406	5988.703125
2233.582031	5884.759277
2232.095703	5897.046387
2230.611328	5937.949219
2229.126953	5968.735840
2227.640625	5928.828125
2226.154297	5961.286133
2224.667969	5881.022461
2223.181641	6059.799316
2221.695313	6072.031738
2220.208984	6124.607910
2218.720703	5963.692871
2217.234375	6009.546875
2215.746094	5927.687988
2214.257813	6042.403809
2212.769531	5942.095703
2211.279297	6021.499023
2209.791016	6075.687988
2208.300781	5983.825195
2206.812500	5930.597168
2205.322266	6072.016602
2203.832031	6087.568359
2202.341797	6082.987305
2200.849609	6150.510254
2199.359375	6087.241699
2197.867188	6097.747559
2196.375000	6081.436523
2194.882813	6086.912598
2193.390625	6011.980469
2191.898438	6191.644531
2190.404297	6166.953613
2188.912109	6058.567871
2187.417969	6105.885254
2185.923828	6054.451172
2184.429688	6095.057617
2182.935547	6204.229492
2181.439453	6039.081543
2179.945313	6230.151855
2178.449219	6108.530273
2176.953125	6177.496582
2175.458984	6147.841797
2173.960938	6203.406250
2172.464844	6147.031250
2170.968750	6197.562500
2169.470703	6221.356934
2167.972656	6208.415527
2166.474609	6117.034180
2164.976563	6235.945801
2163.478516	6338.125488
2161.980469	6201.735352
2160.480469	6270.526367
2158.982422	6272.594727
2157.482422	6169.639648
2155.982422	6266.728027
2154.482422	6168.813965
2152.980469	6230.876465
2151.480469	6379.527832
2149.978516	6220.032227
2148.476563	6217.110352
2146.974609	6300.751953
2145.472656	6342.750977
2143.970703	6301.533691
2142.468750	6341.851074
2140.964844	6234.117188
2139.462891	6410.795898
2137.958984	6259.861816
2136.455078	6218.700684
2134.949219	6385.302734
2133.445313	6393.981445
2131.941406	6352.816895
2130.435547	6349.871094
2128.929688	6277.179688
2127.423828	6368.886719
2125.917969	6341.039063
2124.412109	6402.821777
2122.906250	6311.924805
2121.398438	6386.959473
2119.890625	6475.232422
2118.382813	6374.425293
2116.875000	6323.396973
2115.367188	6383.448242
2113.859375	6357.297363
2112.349609	6342.754883
2110.841797	6354.723633
2109.332031	6383.250000
2107.822266	6411.764160
2106.312500	6480.000977
2104.800781	6518.414551
2103.291016	6359.876953
2101.779297	6447.936523
2100.269531	6372.188965
2098.757813	6504.865723
2097.246094	6468.822754
2095.732422	6330.292480
2094.220703	6365.373535
2092.707031	6408.703613
2091.195313	6501.583008
2089.681641	6485.397949
2088.167969	6551.797852
2086.654297	6560.377441
2085.138672	6390.655273
2083.625000	6417.419434
2082.109375	6569.590332
2080.593750	6485.763184
2079.078125	6425.063477
2077.562500	6491.379395
2076.046875	6664.845703
2074.531250	6607.442871
2073.013672	6594.564941
2071.496094	6528.959473
2069.978516	6534.225098
2068.460938	6555.960449
2066.943359	6661.678223
2065.425781	6536.834961
2063.906250	6515.753418
2062.386719	6596.725586
2060.869141	6629.943359
2059.349609	6564.434082
2057.828125	6612.448242
2056.308594	6667.020508
2054.789063	6608.119141
2053.267578	6652.806152
2051.746094	6584.069824
2050.224609	6561.371094
2048.703125	6500.894531
2047.181641	6578.416504
2045.658203	6670.686523
2044.136719	6610.223633
2042.613281	6530.086426
2041.089844	6732.270508
2039.566406	6565.173340
2038.042969	6678.677734
2036.517578	6641.235840
2034.994141	6697.282227
2033.468750	6753.305176
2031.943359	6743.736328
2030.417969	6685.004395
2028.892578	6795.066895
2027.367188	6829.726074
2025.839844	6782.476563
2024.314453	6769.634766
2022.787109	6740.425293
2021.259766	6766.881348
2019.732422	6667.312012
2018.203125	6731.404785
2016.675781	6640.061523
2015.146484	6815.350586
2013.619141	6725.661621
2012.089844	6853.449707
2010.560547	6696.771973
2009.029297	6855.562988
2007.500000	6824.757813
2005.968750	6831.536621
2004.439453	6898.741211
2002.908203	6814.059570
2001.376953	6814.304688
1999.843750	6905.954590
1998.312500	6901.284668
1996.781250	6821.563965
1995.248047	6860.955566
1993.714844	6931.317871
1992.181641	6802.722168
1990.648438	6794.815430
1989.115234	6861.887207
1987.580078	6971.299805
1986.044922	6877.012695
1984.511719	6893.529785
1982.976563	6879.096191
1981.441406	6859.783691
1979.904297	6996.757813
1978.369141	6891.166992
1976.832031	6857.217285
1975.294922	6981.091797
1973.759766	6911.352051
1972.220703	6776.590332
1970.683594	6783.337891
1969.146484	7098.944336
1967.607422	6918.718750
1966.068359	6998.553711
1964.531250	6993.876953
1962.992188	7021.687012
1961.451172	7020.254883
1959.912109	7000.962891
1958.371094	6939.473633
1956.832031	7069.515137
1955.291016	7032.375488
1953.750000	7092.586426
1952.208984	6967.871582
1950.666016	6997.259766
1949.125000	7054.197754
1947.582031	6986.298340
1946.039063	6926.529785
1944.496094	6946.179199
1942.953125	7072.737793
1941.410156	7116.643066
1939.865234	6972.691406
1938.322266	7040.882813
1936.777344	6934.233398
1935.232422	7180.417480
1933.687500	7088.344238
1932.142578	7109.542969
1930.595703	6978.705078
1929.050781	6996.683105
1927.503906	7135.901855
1925.957031	7018.068359
1924.410156	7071.577637
1922.863281	7060.437988
1921.314453	7286.756348
1919.767578	7123.766602
1918.218750	7036.732910
1916.669922	7204.799805
1915.121094	7056.451660
1913.572266	7061.463379
1912.021484	7210.060547
1910.472656	6979.537109
1908.921875	7363.541992
1907.371094	7036.339355
1905.820313	7170.310059
1904.269531	7083.422852
1902.718750	7199.603516
1901.166016	7025.749023
1899.615234	7085.518066
1898.062500	7164.587402
1896.509766	7333.786133
1894.957031	7237.311523
1893.402344	7213.298340
1891.849609	7178.031250
1890.294922	7136.343262
1888.740234	7202.435059
1887.185547	7353.727051
1885.630859	7331.320801
1884.076172	7223.729492
1882.519531	7100.111328
1880.964844	7288.254395
1879.408203	7318.890137
1877.851563	7298.117188
1876.294922	7296.622070
1874.736328	7229.303711
1873.179688	7357.836426
1871.621094	7293.741699
1870.064453	7300.269531
1868.505859	7462.393555
1866.947266	7387.089355
1865.386719	7318.229492
1863.828125	7343.982422
1862.267578	7364.916016
1860.708984	7373.020508
1859.148438	7328.250488
1857.587891	7355.580566
1856.025391	7360.477539
1854.464844	7304.528320
1852.902344	7474.319824
1851.341797	7339.943848
1849.779297	7376.842285
1848.216797	7381.728027
1846.652344	7437.796387
1845.089844	7317.929199
1843.525391	7369.189941
1841.962891	7399.648438
1840.398438	7348.584961
1838.833984	7335.891113
1837.267578	7583.604004
1835.703125	7559.686035
1834.136719	7569.312012
1832.572266	7409.696777
1831.005859	7457.658691
1829.439453	7387.502441
1827.873047	7489.698730
1826.304688	7518.470215
1824.738281	7599.862305
1823.169922	7459.569824
1821.601563	7619.059570
1820.033203	7308.267090
1818.464844	7488.438477
1816.896484	7502.832520
1815.326172	7448.722656
1813.755859	7635.123047
1812.185547	7616.038086
1810.615234	7549.201172
1809.044922	7512.632813
1807.474609	7644.759766
1805.902344	7609.776855
1804.332031	7581.170410
1802.759766	7550.984863
1801.187500	7622.572754
1799.615234	7501.777832
1798.041016	7505.002441
1796.468750	7633.760254
1794.894531	7600.415039
1793.320313	7559.141602
1791.746094	7617.932617
1790.171875	7540.153320
1788.597656	7524.314941
1787.021484	7489.437500
1785.445313	7537.085449
1783.871094	7565.675781
1782.294922	7646.595703
1780.716797	7527.673828
1779.140625	7641.861816
1777.564453	7657.724609
1775.986328	7633.960449
1774.408203	7603.867676
1772.830078	7741.706055
1771.251953	7654.584961
1769.673828	7580.167480
1768.093750	7722.673828
1766.513672	7588.124512
1764.935547	7691.006348
1763.355469	7714.736328
1761.773438	7594.507324
1760.193359	7743.187500
1758.613281	7728.941895
1757.031250	7656.208984
1755.449219	7600.891602
1753.867188	7820.556641
1752.285156	7858.441895
1750.701172	7708.340820
1749.119141	7654.636230
1747.535156	7774.634766
1745.951172	7738.301758
1744.367188	7836.137207
1742.783203	7828.208984
1741.199219	7790.308594
1739.613281	7686.176758
1738.029297	7758.708496
1736.443359	7828.056641
1734.857422	7774.422363
1733.271484	7711.354004
1731.683594	7845.270020
1730.097656	7835.773926
1728.509766	7768.005371
1726.921875	7909.699219
1725.333984	7851.388672
1723.746094	7945.784180
1722.158203	7783.624023
1720.568359	7903.167969
1718.978516	7805.578125
1717.390625	7896.757813
1715.800781	7995.761719
1714.208984	8130.882324
1712.619141	8000.316895
1711.027344	8055.235840
1709.437500	7852.467773
1707.845703	8059.761230
1706.253906	8119.343750
1704.662109	7998.334473
1703.068359	8120.697266
1701.476563	8054.668945
1699.882813	8224.043945
1698.289063	8096.835449
1696.695313	8051.242676
1695.101563	8157.783691
1693.505859	8170.207520
1691.912109	8149.707031
1690.316406	8115.109375
1688.720703	8080.525879
1687.125000	8130.551270
1685.529297	8161.760742
1683.933594	8125.621582
1682.335938	7995.560059
1680.738281	8025.211426
1679.140625	8140.922363
1677.542969	8120.461914
1675.945313	8156.324707
1674.347656	8165.583984
1672.748047	8170.147949
1671.148438	8168.456543
1669.548828	8171.454102
1667.949219	8002.554199
1666.349609	8089.951660
1664.748047	8127.327637
1663.148438	8278.693359
1661.546875	8063.066406
1659.945313	8265.897461
1658.343750	8342.222656
1656.742188	8189.132324
1655.138672	8213.957031
1653.537109	8078.113770
1651.933594	8118.544922
1650.330078	8282.130859
1648.726563	8394.207031
1647.121094	8213.241211
1645.517578	8114.932129
1643.912109	8312.653320
1642.306641	8234.611328
1640.701172	8373.051758
1639.095703	8193.832031
1637.490234	8293.307617
1635.884766	8266.688477
1634.277344	8146.724609
1632.669922	8232.147461
1631.062500	8301.981445
1629.455078	8390.445313
1627.845703	8385.595703
1626.238281	8385.409180
1624.628906	8427.180664
1623.019531	8313.568359
1621.410156	8473.388672
1619.800781	8140.840332
1618.191406	8469.871094
1616.580078	8461.903320
1614.968750	8379.440430
1613.359375	8317.183594
1611.746094	8411.642578
1610.134766	8442.468750
1608.523438	8454.671875
1606.910156	8359.889648
1605.298828	8435.658203
1603.685547	8433.906250
1602.070313	8529.769531
1600.457031	8487.719727
1598.843750	8403.869141
1597.228516	8385.088867
1595.613281	8550.548828
1593.998047	8469.831055
1592.382813	8512.949219
1590.767578	8477.140625
1589.152344	8609.957031
1587.535156	8421.033203
1585.917969	8453.298828
1584.300781	8570.577148
1582.683594	8520.880859
1581.066406	8633.458984
1579.447266	8640.933594
1577.828125	8484.672852
1576.210938	8354.729492
1574.591797	8626.277344
1572.970703	8539.581055
1571.351563	8517.740234
1569.730469	8613.178711
1568.111328	8551.220703
1566.490234	8595.711914
1564.869141	8657.147461
1563.248047	8703.139648
1561.625000	8681.289063
1560.003906	8613.213867
1558.380859	8469.668945
1556.757813	8665.083984
1555.134766	8845.015625
1553.511719	8541.369141
1551.886719	8681.223633
1550.263672	8624.004883
1548.638672	8766.860352
1547.013672	8763.496094
1545.388672	8721.675781
1543.761719	8661.418945
1542.136719	8741.105469
1540.509766	8694.703125
1538.882813	8674.447266
1537.255859	8686.468750
1535.628906	8552.537109
1534.001953	8738.142578
1532.373047	8768.569336
1530.746094	8752.922852
1529.117188	8709.652344
1527.488281	8727.787109
1525.859375	8752.050781
1524.228516	8698.067383
1522.599609	8812.816406
1520.968750	8787.976563
1519.337891	8838.268555
1517.707031	8677.016602
1516.076172	8659.880859
1514.443359	8886.361328
1512.810547	8850.806641
1511.179688	8744.818359
1509.546875	8853.237305
1507.914063	8854.451172
1506.279297	8766.892578
1504.646484	8988.472656
1503.011719	8916.220703
1501.376953	8847.057617
1499.742188	8880.382813
1498.107422	8872.412109
1496.472656	8801.771484
1494.835938	8827.442383
1493.201172	8827.125977
1491.564453	8895.553711
1489.927734	8844.820313
1488.289063	8817.012695
1486.652344	8970.893555
1485.013672	8906.437500
1483.376953	8903.049805
1481.738281	9030.876953
1480.099609	8940.514648
1478.458984	9060.653320
1476.820313	8991.668945
1475.179688	8881.550781
1473.539063	9035.157227
1471.898438	9027.171875
1470.257813	8993.290039
1468.617188	8900.017578
1466.974609	9013.894531
1465.333984	8996.783203
1463.691406	9016.211914
1462.048828	9044.763672
1460.406250	9179.815430
1458.761719	9077.489258
1457.119141	9172.931641
1455.474609	9166.449219
1453.830078	9131.083008
1452.185547	9363.252930
1450.539063	9102.945313
1448.894531	9128.388672
1447.248047	9317.877930
1445.603516	9165.571289
1443.957031	9315.494141
1442.308594	9260.409180
1440.662109	9256.952148
1439.015625	9203.418945
1437.367188	9274.313477
1435.718750	9296.639648
1434.070313	9321.989258
1432.421875	9310.938477
1430.771484	9407.518555
1429.123047	9420.703125
1427.472656	9233.869141
1425.822266	9195.575195
1424.171875	9325.417969
1422.521484	9332.548828
1420.869141	9360.871094
1419.218750	9268.088867
1417.566406	9291.872070
1415.914063	9578.910156
1414.261719	9283.436523
1412.607422	9328.373047
1410.955078	9270.470703
1409.300781	9552.734375
1407.646484	9399.586914
1405.992188	9465.614258
1404.337891	9247.583984
1402.683594	9235.070313
1401.027344	9409.820313
1399.371094	9504.475586
1397.714844	9408.889648
1396.058594	9411.442383
1394.402344	9445.679688
1392.744141	9516.108398
1391.087891	9254.688477
1389.429688	9371.873047
1387.771484	9409.102539
1386.113281	9414.663086
1384.453125	9384.052734
1382.794922	9421.254883
1381.134766	9455.428711
1379.474609	9480.550781
1377.814453	9544.810547
1376.154297	9517.212891
1374.492188	9569.395508
1372.832031	9519.231445
1371.169922	9353.244141
1369.507813	9364.815430
1367.845703	9442.549805
1366.181641	9556.334961
1364.519531	9664.058594
1362.855469	9544.801758
1361.191406	9551.809570
1359.527344	9668.478516
1357.863281	9481.707031
1356.199219	9583.324219
1354.533203	9483.723633
1352.867188	9475.724609
1351.201172	9616.293945
1349.535156	9524.249023
1347.869141	9504.245117
1346.201172	9514.242188
1344.535156	9552.723633
1342.867188	9678.135742
1341.199219	9464.770508
1339.531250	9669.565430
1337.861328	9609.102539
1336.193359	9689.458984
1334.523438	9829.682617
1332.853516	9597.043945
1331.183594	9794.108398
1329.511719	9664.836914
1327.841797	9797.463867
1326.169922	9704.147461
1324.500000	9760.431641
1322.828125	9716.506836
1321.154297	9784.723633
1319.482422	9746.790039
1317.808594	9835.891602
1316.136719	9845.770508
1314.462891	9812.327148
1312.789063	9881.942383
1311.113281	9869.407227
1309.439453	9973.314453
1307.763672	9786.144531
1306.087891	9873.610352
1304.412109	9793.952148
1302.736328	9944.022461
1301.060547	9931.486328
1299.382813	9853.354492
1297.707031	9921.333984
1296.029297	10051.874023
1294.351563	10000.584961
1292.671875	9986.557617
1290.994141	9950.195313
1289.314453	9962.985352
1287.636719	10199.074219
1285.957031	10098.687500
1284.275391	10037.033203
1282.595703	10012.597656
1280.914063	10141.377930
1279.234375	10124.365234
1277.552734	10024.097656
1275.871094	10167.657227
1274.189453	10156.592773
1272.505859	10259.943359
1270.822266	10217.666016
1269.140625	10301.651367
1267.457031	10295.020508
1265.771484	10206.737305
1264.087891	10240.203125
1262.404297	10143.063477
1260.718750	10216.586914
1259.033203	10204.043945
1257.347656	10268.624023
1255.662109	10226.418945
1253.974609	10421.418945
1252.287109	10376.234375
1250.601563	10225.860352
1248.914063	10315.549805
1247.224609	10511.844727
1245.537109	10308.224609
1243.849609	10240.900391
1242.160156	10395.637695
1240.470703	10428.956055
1238.781250	10346.850586
1237.091797	10417.146484
1235.400391	10358.741211
1233.708984	10343.240234
1232.019531	10531.757813
1230.328125	10402.417969
1228.634766	10485.922852
1226.943359	10346.303711
1225.250000	10307.185547
1223.558594	10378.842773
1221.865234	10268.862305
1220.171875	10406.921875
1218.476563	10415.048828
1216.783203	10471.864258
1215.087891	10384.083008
1213.392578	10473.327148
1211.697266	10435.717773
1210.001953	10563.243164
1208.306641	10518.259766
1206.609375	10619.186523
1204.912109	10532.955078
1203.214844	10742.838867
1201.517578	10669.871094
1199.820313	10769.205078
1198.121094	10659.458984
1196.423828	10614.516602
1194.724609	10663.767578
1193.025391	10808.622070
1191.326172	10775.441406
1189.625000	10861.387695
1187.923828	10716.471680
1186.224609	10903.817383
1184.523438	10617.871094
1182.822266	10880.089844
1181.119141	11002.644531
1179.417969	10901.908203
1177.714844	10962.734375
1176.011719	10972.151367
1174.308594	10947.806641
1172.605469	10993.907227
1170.900391	10931.420898
1169.197266	10978.971680
1167.492188	10920.913086
1165.787109	11059.346680
1164.080078	11093.644531
1162.375000	11154.306641
1160.667969	11135.819336
1158.962891	11055.812500
1157.255859	11155.987305
1155.548828	11102.366211
1153.839844	11218.589844
1152.132813	11216.206055
1150.423828	11155.287109
1148.714844	11262.646484
1147.005859	11181.263672
1145.296875	11250.545898
1143.585938	11341.730469
1141.876953	11177.056641
1140.166016	11401.213867
1138.455078	11414.862305
1136.744141	11434.347656
1135.033203	11512.247070
1133.320313	11357.931641
1131.607422	11510.270508
1129.894531	11588.101563
1128.181641	11509.750977
1126.468750	11533.564453
1124.753906	11472.761719
1123.041016	11582.616211
1121.326172	11692.423828
1119.611328	11678.273438
1117.896484	11843.395508
1116.179688	11693.701172
1114.464844	11721.805664
1112.748047	11525.589844
1111.031250	11740.113281
1109.314453	11704.126953
1107.595703	11777.326172
1105.878906	11808.289063
1104.160156	11962.912109
1102.441406	11759.618164
1100.722656	11877.825195
1099.003906	11886.926758
1097.283203	11704.128906
1095.562500	11730.704102
1093.843750	11925.829102
1092.123047	11775.099609
1090.400391	11955.605469
1088.679688	11970.483398
1086.957031	11915.663086
1085.236328	11917.476563
1083.513672	12004.914063
1081.789063	11871.767578
1080.066406	12052.017578
1078.341797	11953.724609
1076.619141	12071.527344
1074.894531	12002.264648
1073.169922	11977.962891
1071.443359	11952.221680
1069.718750	11910.553711
1067.992188	12005.060547
1066.265625	11908.367188
1064.539063	12092.599609
1062.812500	12068.305664
1061.085938	11819.696289
1059.357422	11985.018555
1057.628906	11884.087891
1055.900391	11885.889648
1054.171875	11894.918945
1052.443359	12067.309570
1050.712891	11979.453125
1048.982422	12020.247070
1047.251953	12001.787109
1045.521484	12058.446289
1043.791016	11912.897461
1042.058594	11959.443359
1040.328125	12105.572266
1038.595703	11911.034180
1036.863281	12034.023438
1035.128906	11973.746094
1033.396484	12011.571289
1031.662109	11958.533203
1029.927734	11932.909180
1028.193359	12173.952148
1026.458984	11981.126953
1024.724609	11948.307617
1022.988281	12055.227539
1021.251953	12141.938477
1019.515625	12027.033203
1017.779297	11987.032227
1016.042969	12030.522461
1014.304688	12048.093750
1012.568359	12157.726563
1010.830078	12074.580078
1009.089844	11926.757813
1007.351563	12214.618164
1005.613281	12194.754883
1003.873047	11946.404297
1002.132813	12032.925781
1000.392578	12067.697266
998.652344	12111.070313
996.910156	12167.345703
995.169922	12184.837891
993.427734	12035.833984
991.685547	12077.738281
989.941406	11987.639648
988.199219	12055.352539
986.455078	12145.979492
984.712891	12078.860352
982.968750	12149.374023
981.222656	12277.180664
979.478516	12243.028320
977.734375	12168.780273
975.988281	12126.071289
974.242188	12226.564453
972.496094	12235.395508
970.748047	12288.589844
969.001953	12205.822266
967.253906	12347.697266
965.505859	12355.060547
963.757813	12253.740234
962.009766	12339.752930
960.259766	12184.160156
958.511719	12247.283203
956.761719	12347.527344
955.011719	12297.738281
953.259766	12420.777344
951.509766	12368.136719
949.757813	12346.922852
948.007813	12337.136719
946.255859	12398.700195
944.501953	12400.317383
942.750000	12394.802734
940.996094	12486.257813
939.244141	12540.604492
937.490234	12349.756836
935.734375	12391.282227
933.980469	12281.760742
932.224609	12357.468750
930.470703	12343.419922
928.714844	12564.317383
926.958984	12459.119141
925.201172	12614.424805
923.445313	12470.839844
921.687500	12626.074219
919.929688	12489.659180
918.171875	12617.801758
916.414063	12649.209961
914.654297	12357.939453
912.894531	12446.234375
911.136719	12547.277344
909.375000	12509.065430
907.615234	12519.156250
905.855469	12671.233398
904.093750	12611.722656
902.332031	12651.587891
900.570313	12729.748047
898.808594	12376.593750
897.044922	12566.829102
895.283203	12769.745117
893.519531	12585.521484
891.755859	12579.977539
889.992188	12669.384766
888.226563	12646.820313
886.462891	12637.014648
884.697266	12597.470703
882.931641	12618.829102
881.166016	12659.995117
879.398438	12604.901367
877.632813	12766.328125
875.865234	12639.083008
874.097656	12554.323242
872.330078	12629.393555
870.562500	12769.466797
868.792969	12663.529297
867.023438	12687.650391
865.253906	12707.521484
863.484375	12618.614258
861.714844	12742.999023
859.943359	12555.282227
858.173828	12726.210938
856.402344	12829.318359
854.628906	12593.726563
852.857422	12720.799805
851.085938	12505.077148
849.312500	12632.113281
847.539063	12716.798828
845.765625	12701.369141
843.992188	12673.261719
842.216797	12616.987305
840.441406	12643.845703
838.667969	12770.682617
836.892578	12776.374023
835.115234	12848.224609
833.339844	12927.080078
831.562500	12728.701172
829.785156	12728.765625
828.007813	12692.261719
826.230469	12817.484375
824.451172	12872.357422
822.673828	12778.212891
820.894531	12842.906250
819.115234	12789.552734
817.335938	12858.427734
815.554688	12642.183594
813.775391	12955.368164
811.994141	12869.745117
810.212891	12918.891602
808.431641	12993.273438
806.648438	12986.255859
804.867188	13102.665039
803.083984	13179.760742
801.300781	13075.970703
799.515625	13157.241211
797.732422	13217.456055
795.947266	13164.159180
794.164063	13050.654297
792.378906	12994.614258
790.591797	13074.410156
788.806641	13058.982422
787.019531	13149.924805
785.234375	13124.691406
783.447266	13183.403320
781.658203	13049.080078
779.871094	13104.984375
778.082031	13047.625000
776.294922	13089.527344
774.505859	13089.487305
772.716797	13020.989258
770.925781	13103.374023
769.136719	12995.798828
767.345703	13167.507813
765.554688	13121.382813
763.763672	13188.320313
761.970703	13147.790039
760.179688	13185.395508
758.386719	13243.904297
756.593750	13213.146484
754.800781	13240.953125
753.005859	13180.937500
751.212891	13198.982422
749.417969	13158.505859
747.623047	13168.188477
745.828125	13195.969727
744.033203	13251.583008
742.236328	13215.301758
740.439453	13031.519531
738.642578	13106.609375
736.845703	13067.598633
735.048828	13114.831055
733.250000	13114.766602
731.451172	13174.477539
729.652344	13259.179688
727.853516	13239.626953
726.054688	13183.961914
724.253906	13190.823242
722.455078	13408.753906
720.654297	13253.125000
718.853516	13176.681641
717.050781	13061.413086
715.250000	13116.849609
713.447266	13238.843750
711.644531	13032.102539
709.841797	13095.826172
708.037109	13202.493164
706.234375	13255.062500
704.429688	13300.679688
702.625000	13149.559570
700.820313	13096.840820
699.013672	13134.151367
697.208984	13149.293945
695.402344	13276.543945
693.595703	13330.394531
691.789063	13279.073242
689.982422	13223.623047
688.173828	13298.191406
686.365234	13180.541992
684.556641	13216.380859
682.748047	13224.562500
680.939453	13270.045898
679.128906	13358.333008
677.318359	13168.975586
675.507813	13188.203125
673.697266	13264.022461
671.886719	13176.943359
670.074219	13374.163086
668.261719	13247.086914
666.449219	13202.823242
664.636719	13250.972656
662.824219	13184.666992
661.009766	13316.880859
659.195313	13402.180664
657.380859	13199.478516
655.566406	13309.560547
653.751953	13363.126953
651.935547	13172.956055
650.119141	13198.995117
648.302734	13284.203125
646.486328	13345.981445
644.669922	13228.888672
642.851563	13440.571289
641.033203	13084.236328
639.214844	13217.491211
637.396484	13122.517578
635.578125	13364.267578
633.757813	13300.901367
631.937500	13284.264648
630.117188	13273.127930
628.296875	13462.456055
626.474609	13261.848633
624.654297	13338.555664
622.832031	13265.667969
621.009766	13309.416016
619.185547	13316.113281
617.363281	13269.328125
615.539063	13218.450195
613.714844	13474.613281
611.890625	13292.160156
610.066406	13400.230469
608.242188	13298.684570
606.416016	13342.341797
604.589844	13238.113281
602.763672	13359.786133
600.937500	13261.071289
599.109375	13422.363281
597.281250	13249.807617
595.453125	13304.354492
593.625000	13306.916992
591.796875	13196.014648
589.966797	13485.613281
588.138672	13104.162109
586.308594	13276.165039
584.478516	13390.725586
582.646484	13289.479492
580.816406	13286.575195
578.984375	13276.845703
577.152344	13167.500000
575.320313	13213.737305
573.486328	13423.640625
571.654297	13332.060547
569.820313	13409.588867
567.986328	13247.166016
566.152344	13488.220703
564.316406	13286.335938
562.482422	13314.760742
560.646484	13260.092773
558.810547	13293.956055
556.974609	13158.994141
555.136719	13169.724609
553.300781	13100.164063
551.462891	13212.936523
549.625000	13287.574219
547.785156	13031.727539
545.947266	13272.239258
544.107422	13133.404297
542.267578	12917.166992
540.427734	13016.239258
538.587891	12988.937500
536.748047	13128.692383
534.906250	12962.879883
533.064453	12825.647461
531.222656	12887.982422
529.378906	12716.902344
527.537109	12798.224609
525.693359	12703.190430
523.849609	12747.867188
522.005859	12797.945313
520.162109	12723.301758
518.316406	12636.495117
516.470703	12640.498047
514.625000	12740.669922
512.779297	12767.668945
510.933594	12590.210938
509.085938	12687.618164
507.238281	12563.035156
505.390625	12523.746094
503.542969	12470.947266
501.695313	12676.487305
499.845703	12443.839844
497.996094	12301.867188
496.146484	12349.174805
494.296875	12473.482422
492.447266	12423.460938
490.595703	12370.757813
488.744141	12432.859375
486.892578	12366.675781
485.041016	12312.668945
483.187500	12393.631836
481.333984	12416.543945
479.480469	12396.281250
477.626953	12423.226563
475.773438	12284.319336
473.917969	12466.295898
472.064453	12363.826172
470.208984	12358.414063
468.351563	12241.193359
466.496094	12185.977539
464.638672	12194.070313
462.783203	12116.000977
460.925781	12089.110352
459.066406	12175.263672
457.208984	12196.802734
455.349609	12207.570313
453.490234	12231.780273
451.630859	11987.088867
449.771484	11962.945313
447.912109	12077.228516
446.050781	12131.000977
444.189453	11920.125977
442.328125	11980.622070
440.466797	11967.243164
438.603516	11841.110352
436.740234	11983.449219
434.876953	11818.455078
433.013672	11760.851563
431.150391	11836.050781
429.285156	11915.239258
427.419922	11706.162109
425.554688	11641.929688
423.689453	11781.407227
421.824219	11717.184570
419.957031	11532.441406
418.089844	11653.100586
416.222656	11526.021484
414.355469	11744.339844
412.488281	11542.353516
410.619141	11447.491211
408.750000	11431.590820
406.880859	11510.649414
405.011719	11349.000977
403.140625	11513.594727
401.269531	11426.858398
399.398438	11611.403320
397.527344	11489.949219
395.656250	11364.540039
393.783203	11455.503906
391.910156	11172.626953
390.037109	11244.905273
388.164063	11273.115234
386.291016	11197.250977
384.416016	11142.760742
382.541016	11086.960938
380.666016	11152.507813
378.791016	11172.706055
376.914063	11106.272461
375.039063	11003.894531
373.162109	11081.387695
371.285156	10951.091797
369.406250	11060.516602
367.529297	10936.936523
365.650391	10930.527344
363.771484	10945.411133
361.892578	10845.880859
360.011719	10779.644531
358.132813	10846.407227
356.251953	10691.127930
354.371094	10862.879883
352.490234	10954.825195
350.607422	10508.674805
348.724609	10676.365234
346.841797	10450.911133
344.958984	10574.726563
343.076172	10491.418945
341.193359	10432.035156
339.308594	10606.188477
337.423828	10468.541992
335.539063	10454.291016
333.652344	10433.415039
331.767578	10416.525391
329.880859	10438.076172
327.994141	10323.140625
326.107422	10270.516602
324.218750	10227.185547
322.330078	10344.093750
320.443359	10185.590820
318.552734	10084.070313
316.664063	10236.658203
314.775391	10083.574219
312.884766	10074.727539
310.994141	9995.798828
309.103516	9939.379883
307.210938	9962.291992
305.320313	9749.967773
303.427734	9878.606445
301.535156	9752.251953
299.642578	9894.038086
297.748047	9604.015625
295.853516	9663.927734
293.960938	9686.860352
292.064453	9778.393555
290.169922	9640.353516
288.275391	9552.490234
286.378906	9596.521484
284.482422	9510.024414
282.585938	9617.307617
280.687500	9495.264648
278.791016	9510.284180
276.892578	9466.027344
274.994141	9275.623047
273.095703	9406.533203
271.195313	9274.139648
269.294922	9287.873047
267.396484	9214.766602
265.494141	9270.596680
263.593750	9227.771484
261.691406	9136.319336
259.791016	9093.541992
257.888672	9116.492188
255.986328	9149.942383
254.082031	9016.550781
252.177734	9015.861328
250.275391	8945.582031
248.371094	8982.976563
246.464844	8814.301758
244.560547	8838.585938
242.654297	8832.686523
240.748047	8783.507813
238.841797	8830.072266
236.935547	8724.541992
235.027344	8776.340820
233.119141	8714.112305
231.210938	8554.961914
229.302734	8656.535156
227.392578	8504.015625
225.484375	8564.966797
223.574219	8574.842773
221.664063	8500.959961
219.751953	8390.475586
217.841797	8400.380859
215.929688	8357.971680
214.017578	8329.961914
212.105469	8358.173828
210.193359	8365.461914
208.279297	8372.746094
206.365234	8284.665039
204.451172	8286.739258
202.537109	8099.479492
200.621094	8050.680176
198.705078	8042.361816
196.789063	8020.997559
194.873047	8196.632813
192.957031	7997.860840
191.039063	8041.718750
189.123047	7939.541992
187.203125	7997.729980
185.285156	7874.757813
183.367188	7873.002930
181.447266	7806.121582
179.527344	7860.378418
177.607422	7732.335938
175.687500	7752.740723
173.765625	7684.642090
171.843750	7649.100098
169.921875	7647.394531
168.000000	7609.274902
166.078125	7506.160645
164.154297	7425.190918
162.230469	7469.021973
160.306641	7443.967285
158.382813	7468.287598
156.457031	7296.482422
154.531250	7315.629883
152.605469	7307.506348
150.679688	7230.597168
148.753906	7274.399414
146.826172	7185.854980
144.898438	7245.211426
142.970703	7095.765137
141.042969	7203.082520
139.113281	7110.742676
137.183594	7185.610840
135.253906	7076.472656
133.324219	6883.188477
131.394531	7011.150879
129.462891	6912.480957
127.531250	6820.326660
125.599609	6724.330566
123.667969	6577.916992
121.734375	6297.038574
119.802734	6068.015625
117.869141	6002.010254
115.935547	5577.958496
114.000000	5528.892578
112.066406	5549.622070
110.130859	5404.988770
108.195313	5313.372559
106.257813	5331.552734
104.322266	5345.851563
102.384766	5283.994141
100.447266	5131.837402
