#Wave		#Intensity
3501.405273	9802.046875
3500.167969	9771.750000
3498.929688	9832.511719
3497.691406	9856.907227
3496.453125	9752.100586
3495.213867	9935.944336
3493.975586	9913.893555
3492.736328	9841.414063
3491.497070	9740.720703
3490.256836	9849.806641
3489.017578	9851.983398
3487.777344	9936.815430
3486.537109	9973.239258
3485.296875	9840.370117
3484.055664	9981.570313
3482.814453	9832.632813
3481.573242	9953.638672
3480.332031	9883.296875
3479.089844	9968.006836
3477.848633	9923.855469
3476.606445	9998.462891
3475.363281	10032.796875
3474.121094	10032.916992
3472.877930	10045.105469
3471.634766	9828.028320
3470.391602	9993.061523
3469.147461	9828.342773
3467.904297	9969.193359
3466.660156	10071.808594
3465.416016	9929.267578
3464.170898	10047.920898
3462.926758	10001.840820
3461.681641	9907.584961
3460.436523	9903.708008
3459.190430	10078.478516
3457.945313	9960.176758
3456.699219	9990.401367
3455.453125	10000.552734
3454.206055	9998.665039
3452.959961	10014.826172
3451.712891	9890.630859
3450.465820	10043.119141
3449.218750	10155.464844
3447.970703	10013.277344
3446.722656	9881.160156
3445.474609	9819.201172
3444.226563	9955.535156
3442.978516	9885.575195
3441.729492	9971.793945
3440.480469	10108.020508
3439.231445	9982.036133
3437.981445	9994.156250
3436.731445	10108.294922
3435.481445	9996.380859
3434.231445	9882.508789
3432.981445	10002.599609
3431.730469	10074.670898
3430.479492	9836.935547
3429.228516	10002.924805
3427.977539	9907.136719
3426.725586	10045.084961
3425.473633	10111.085938
3424.221680	9979.390625
3422.969727	9969.518555
3421.716797	10041.482422
3420.463867	9788.145508
3419.210938	9925.956055
3417.958008	9868.224609
3416.704102	9916.218750
3415.450195	9918.332031
3414.196289	9922.436523
3412.942383	10046.136719
3411.687500	9866.867188
3410.433594	9960.642578
3409.178711	9777.471680
3407.922852	9926.997070
3406.667969	9937.066406
3405.412109	9885.411133
3404.156250	9933.306641
3402.900391	9951.329102
3401.643555	9985.263672
3400.386719	9893.845703
3399.129883	9933.744141
3397.873047	10029.313477
3396.616211	10001.565430
3395.358398	9969.851563
3394.100586	9904.359375
3392.842773	10053.515625
3391.583984	9839.015625
3390.326172	9805.368164
3389.067383	9875.011719
3387.808594	9857.255859
3386.548828	9629.055664
3385.289063	9847.566406
3384.030273	9631.362305
3382.769531	9704.938477
3381.509766	9659.455078
3380.249023	9774.650391
3378.988281	9723.220703
3377.727539	9808.618164
3376.466797	9580.769531
3375.205078	9735.531250
3373.943359	9783.225586
3372.681641	9686.272461
3371.419922	9809.230469
3370.157227	9684.580078
3368.894531	9750.068359
3367.631836	9674.968750
3366.369141	9815.648438
3365.105469	9605.994141
3363.842773	9667.487305
3362.578125	9699.284180
3361.314453	9699.421875
3360.050781	9671.875000
3358.786133	9707.605469
3357.521484	9545.648438
3356.255859	9611.033203
3354.991211	9737.649414
3353.725586	9706.166992
3352.459961	9670.746094
3351.194336	9643.238281
3349.927734	9588.096680
3348.661133	9694.852539
3347.394531	9533.140625
3346.127930	9594.478516
3344.860352	9592.656250
3343.593750	9482.341797
3342.326172	9592.958984
3341.057617	9561.559570
3339.790039	9518.342773
3338.521484	9552.015625
3337.252930	9483.196289
3335.984375	9426.224609
3334.714844	9499.293945
3333.446289	9434.461914
3332.176758	9588.240234
3330.906250	9610.044922
3329.636719	9560.975586
3328.366211	9474.529297
3327.095703	9403.858398
3325.825195	9409.940430
3324.554688	9504.535156
3323.283203	9447.663086
3322.011719	9432.104492
3320.740234	9605.274414
3319.467773	9432.449219
3318.195313	9595.727539
3316.922852	9595.868164
3315.650391	9631.367188
3314.377930	9374.213867
3313.104492	9295.849609
3311.831055	9419.730469
3310.557617	9604.414063
3309.283203	9433.810547
3308.009766	9386.887695
3306.735352	9316.439453
3305.460938	9479.424805
3304.185547	9383.492188
3302.911133	9411.117188
3301.635742	9481.856445
3300.359375	9103.750977
3299.083984	9401.826172
3297.807617	9441.179688
3296.531250	9603.920898
3295.254883	9506.130859
3293.978516	9386.838867
3292.701172	9383.094727
3291.423828	9520.276367
3290.146484	9361.910156
3288.869141	9338.605469
3287.590820	9278.141602
3286.312500	9329.181641
3285.034180	9403.666992
3283.754883	9329.539063
3282.476563	9390.311523
3281.197266	9353.345703
3279.917969	9427.767578
3278.637695	9199.357422
3277.357422	9246.435547
3276.078125	9396.994141
3274.796875	9473.301758
3273.516602	9393.413086
3272.235352	9360.395508
3270.954102	9225.920898
3269.672852	9479.739258
3268.391602	9425.265625
3267.109375	9364.962891
3265.827148	9361.227539
3264.544922	9429.624023
3263.262695	9400.539063
3261.979492	9466.952148
3260.696289	9311.226563
3259.413086	9414.642578
3258.128906	9198.609375
3256.845703	9481.153320
3255.561523	9382.000977
3254.277344	9333.495117
3252.992188	9281.115234
3251.707031	9275.453125
3250.422852	9411.806641
3249.136719	9392.505859
3247.851563	9326.540039
3246.565430	9138.109375
3245.279297	9371.578125
3243.993164	9525.272461
3242.707031	9284.445313
3241.419922	9072.851563
3240.132813	9325.577148
3238.845703	9354.870117
3237.557617	9320.075195
3236.270508	9186.286133
3234.982422	9300.989258
3233.694336	9339.964844
3232.405273	9241.171875
3231.116211	9338.337891
3229.827148	9004.907227
3228.538086	9350.284180
3227.249023	9125.544922
3225.958984	9193.582031
3224.668945	9114.306641
3223.378906	9149.379883
3222.087891	9223.184570
3220.797852	9070.346680
3219.506836	9190.612305
3218.215820	9088.177734
3216.923828	9171.614258
3215.631836	9237.599609
3214.339844	9021.046875
3213.047852	9150.877930
3211.755859	9152.998047
3210.462891	9033.279297
3209.169922	9290.646484
3207.876953	9145.815430
3206.583008	9209.781250
3205.289063	9047.628906
3203.995117	9082.607422
3202.701172	9163.933594
3201.407227	9193.081055
3200.112305	8936.437500
3198.817383	9075.660156
3197.521484	9021.808594
3196.226563	8896.572266
3194.930664	9136.053711
3193.634766	9018.559570
3192.338867	8968.615234
3191.041992	8912.905273
3189.745117	9084.718750
3188.448242	8990.454102
3187.151367	8894.296875
3185.854492	8981.231445
3184.556641	8858.141602
3183.258789	8896.894531
3181.959961	9080.066406
3180.662109	8899.263672
3179.363281	8722.380859
3178.064453	8886.232422
3176.764648	8717.116211
3175.465820	8676.967773
3174.166016	8858.044922
3172.866211	8662.104492
3171.565430	8823.885742
3170.265625	8799.125977
3168.964844	8797.439453
3167.664063	8903.371094
3166.362305	8888.214844
3165.061523	8692.491211
3163.759766	8585.191406
3162.458008	8669.957031
3161.155273	8656.776367
3159.853516	8624.404297
3158.550781	8828.100586
3157.248047	8665.229492
3155.944336	8776.754883
3154.640625	8654.235352
3153.337891	8750.376953
3152.033203	8627.908203
3150.729492	8687.595703
3149.424805	8647.598633
3148.120117	8622.945313
3146.815430	8422.042969
3145.509766	8663.693359
3144.205078	8591.171875
3142.899414	8622.074219
3141.592773	8457.698242
3140.287109	8444.590820
3138.980469	8506.121094
3137.673828	8521.708008
3136.367188	8676.930664
3135.059570	8392.208984
3133.752930	8505.328125
3132.445313	8496.048828
3131.136719	8633.952148
3129.829102	8462.209961
3128.520508	8544.655273
3127.211914	8401.650391
3125.902344	8388.577148
3124.593750	8331.587891
3123.284180	8331.896484
3121.974609	8494.458984
3120.664063	8374.500000
3119.354492	8388.156250
3118.043945	8365.559570
3116.733398	8470.766602
3115.421875	8314.668945
3114.111328	8314.978516
3112.799805	8353.413086
3111.488281	8246.981445
3110.175781	8291.129883
3108.864258	8198.085938
3107.551758	8261.275391
3106.238281	8360.624023
3104.925781	8423.755859
3103.612305	8220.339844
3102.298828	8395.773438
3100.985352	8236.208984
3099.671875	8211.793945
3098.357422	8333.862305
3097.042969	8100.227051
3095.727539	8130.995117
3094.413086	8127.529785
3093.097656	8232.412109
3091.782227	8242.230469
3090.466797	8240.645508
3089.150391	8140.274414
3087.833984	8152.003418
3086.517578	8148.535645
3085.201172	8120.387207
3083.883789	8192.856445
3082.566406	8189.381348
3081.249023	8134.674316
3079.931641	8042.044922
3078.613281	8125.852539
3077.294922	8107.220215
3075.976563	8008.959961
3074.658203	8132.533691
3073.338867	8057.049805
3072.019531	7761.778809
3070.700195	8133.520020
3069.379883	7917.904785
3068.060547	8058.419922
3066.740234	8062.548340
3065.418945	7900.078125
3064.098633	8015.908203
3062.777344	8090.060059
3061.456055	8077.148926
3060.134766	8075.592773
3058.812500	7920.839355
3057.491211	7953.350098
3056.167969	8017.987793
3054.845703	8027.783691
3053.523438	7782.444336
3052.200195	7881.087402
3050.876953	7866.343750
3049.552734	8091.479492
3048.229492	7957.730957
3046.905273	7988.292969
3045.580078	7973.539063
3044.255859	7943.691406
3042.930664	7719.499512
3041.605469	7934.967773
3040.280273	7944.754395
3038.955078	7918.705566
3037.628906	8015.223633
3036.302734	7815.738770
3034.976563	7885.851563
3033.649414	7763.728027
3032.322266	7850.779785
3030.995117	7858.683105
3029.667969	7857.166016
3028.339844	7908.372070
3027.012695	7921.906250
3025.684570	7916.612305
3024.355469	7884.974121
3023.027344	7947.422852
3021.698242	7776.586426
3020.369141	7963.161133
3019.039063	7811.191406
3017.708984	7837.883301
3016.378906	7729.228027
3015.048828	7759.683594
3013.718750	7981.779785
3012.387695	7826.193359
3011.056641	8010.625488
3009.725586	7736.788086
3008.393555	7812.270508
3007.062500	7775.095215
3005.730469	7801.744629
3004.397461	7894.057129
3003.065430	7963.821289
3001.732422	7836.610840
3000.399414	7866.976563
2999.065430	7797.957520
2997.732422	7852.687500
2996.398438	7905.522461
2995.064453	7819.669434
2993.729492	7915.579590
2992.395508	7790.421387
2991.060547	7856.334961
2989.724609	7802.387695
2988.389648	7832.703613
2987.053711	7786.267578
2985.717773	7870.842773
2984.381836	7792.609863
2983.044922	7877.150391
2981.708984	7901.810059
2980.372070	7752.559570
2979.034180	7868.839355
2977.697266	7811.241699
2976.359375	7918.120605
2975.021484	7853.060547
2973.682617	8015.931641
2972.344727	7816.401855
2971.005859	7870.909180
2969.666016	7940.331055
2968.327148	7821.195801
2966.987305	7825.279785
2965.647461	7859.216797
2964.307617	7825.980469
2962.967773	7813.273438
2961.626953	7865.840332
2960.286133	7748.719727
2958.944336	7730.441406
2957.603516	7980.549316
2956.261719	7844.839355
2954.919922	7766.935547
2953.577148	7728.177246
2952.235352	7737.853516
2950.892578	7792.211914
2949.549805	7831.656250
2948.206055	7809.665039
2946.863281	7783.959961
2945.519531	7663.379395
2944.174805	7818.145020
2942.831055	7863.123535
2941.486328	7744.455566
2940.141602	7737.376465
2938.796875	7672.680664
2937.451172	7897.909180
2936.105469	7794.188965
2934.759766	7822.398926
2933.414063	7720.589844
2932.067383	7709.807617
2930.720703	7886.538574
2929.374023	7593.589844
2928.027344	7863.064453
2926.679688	7716.813965
2925.332031	7824.766602
2923.984375	7869.616211
2922.635742	7853.253906
2921.287109	7831.334961
2919.938477	7789.034668
2918.589844	7969.145020
2917.240234	7823.069336
2915.890625	7830.812988
2914.541016	7770.021973
2913.191406	7974.068359
2911.840820	7937.341797
2910.490234	7819.178711
2909.139648	7852.824707
2907.789063	7738.424316
2906.437500	7788.722168
2905.085938	7972.178711
2903.734375	7806.039063
2902.381836	7959.836426
2901.029297	7810.400391
2899.676758	7758.979492
2898.324219	7753.775879
2896.970703	7914.852051
2895.617188	7883.759277
2894.263672	7957.946289
2892.910156	7760.674316
2891.555664	7729.627930
2890.201172	7870.247559
2888.846680	7804.128906
2887.491211	7833.976563
2886.135742	7797.404297
2884.780273	7867.815918
2883.424805	7919.760254
2882.068359	7763.358398
2880.712891	7914.836426
2879.355469	7900.396484
2877.999023	7854.639160
2876.641602	7856.795410
2875.284180	7884.735352
2873.926758	8012.102051
2872.569336	7970.039063
2871.210938	7907.744141
2869.852539	7836.270996
2868.494141	7842.105957
2867.134766	7978.553223
2865.775391	7816.981445
2864.416016	7911.083984
2863.056641	7782.682129
2861.696289	7865.725098
2860.335938	8033.276367
2858.975586	7980.261719
2857.614258	8092.610352
2856.253906	7995.521484
2854.892578	8043.547363
2853.530273	7902.439453
2852.168945	8001.864258
2850.806641	7840.629395
2849.444336	7923.511719
2848.082031	7949.487305
2846.718750	7982.789551
2845.355469	7946.389160
2843.992188	8073.190430
2842.627930	8139.445313
2841.264648	8051.714844
2839.900391	7947.525391
2838.535156	7823.223145
2837.170898	7938.931641
2835.805664	8019.797852
2834.440430	8010.909668
2833.075195	8034.977539
2831.708984	8097.473145
2830.342773	8068.443848
2828.976563	8044.914551
2827.609375	8014.076660
2826.243164	7948.500977
2824.875977	8201.121094
2823.507813	8055.092285
2822.140625	7949.333008
2820.772461	8000.779297
2819.404297	8161.833496
2818.035156	8046.979980
2816.666992	8023.492676
2815.297852	8131.490723
2813.928711	8053.223633
2812.558594	8172.125000
2811.189453	8154.104492
2809.819336	8121.493652
2808.448242	8150.920410
2807.078125	8213.166992
2805.707031	8063.853027
2804.335938	8147.969727
2802.963867	8060.703613
2801.592773	8133.852051
2800.220703	7935.470703
2798.848633	8068.733398
2797.475586	8180.086426
2796.102539	8287.752930
2794.729492	8074.929199
2793.356445	8177.112793
2791.982422	8184.614746
2790.609375	7946.458984
2789.234375	8092.269531
2787.860352	8239.841797
2786.485352	8225.500977
2785.110352	8060.251465
2783.735352	8165.930664
2782.360352	8011.661621
2780.984375	8110.039551
2779.608398	8059.399902
2778.231445	8197.691406
2776.855469	8197.904297
2775.478516	8219.905273
2774.101563	8025.865723
2772.723633	8222.134766
2771.346680	8167.900391
2769.968750	8338.664063
2768.589844	8141.123047
2767.211914	8154.039063
2765.833008	8244.919922
2764.454102	8123.654297
2763.075195	8316.007813
2761.695313	8203.835938
2760.315430	8245.713867
2758.935547	8396.265625
2757.554688	8372.887695
2756.174805	8190.170410
2754.793945	8304.433594
2753.412109	8317.288086
2752.031250	8295.752930
2750.649414	8209.087891
2749.267578	8285.267578
2747.884766	8209.490234
2746.502930	8260.322266
2745.120117	8305.710938
2743.736328	8396.270508
2742.353516	8297.035156
2740.969727	8163.506348
2739.585938	8295.589844
2738.202148	8436.652344
2736.817383	8351.930664
2735.432617	8399.041992
2734.047852	8283.672852
2732.662109	8269.416016
2731.277344	8323.731445
2729.891602	8262.565430
2728.504883	8251.926758
2727.119141	8371.132813
2725.732422	8302.781250
2724.345703	8317.375977
2722.958008	8472.543945
2721.571289	8440.249023
2720.183594	8424.180664
2718.794922	8514.390625
2717.407227	8361.447266
2716.018555	8377.812500
2714.629883	8460.776367
2713.241211	8484.313477
2711.851563	8488.046875
2710.461914	8369.438477
2709.072266	8464.928711
2707.681641	8488.444336
2706.291016	8490.375000
2704.900391	8420.395508
2703.509766	8505.014648
2702.119141	8541.082031
2700.727539	8501.674805
2699.334961	8437.135742
2697.943359	8408.540039
2696.550781	8433.822266
2695.158203	8660.159180
2693.765625	8658.458008
2692.372070	8552.674805
2690.979492	8595.848633
2689.584961	8520.613281
2688.191406	8567.363281
2686.796875	8528.024414
2685.402344	8594.473633
2684.007813	8549.766602
2682.613281	8562.422852
2681.217773	8591.198242
2679.822266	8711.321289
2678.425781	8704.235352
2677.030273	8652.386719
2675.633789	8697.232422
2674.237305	8636.455078
2672.839844	8711.708984
2671.442383	8781.564453
2670.044922	8667.138672
2668.647461	8787.053711
2667.249023	8626.177734
2665.850586	8601.238281
2664.452148	8583.458984
2663.053711	8867.709961
2661.654297	8658.700195
2660.254883	8696.297852
2658.855469	8733.879883
2657.455078	8796.446289
2656.054688	8759.007813
2654.654297	8748.359375
2653.252930	8762.699219
2651.852539	8689.601563
2650.451172	8898.398438
2649.048828	8793.197266
2647.647461	8778.982422
2646.245117	8784.385742
2644.842773	8853.958008
2643.439453	8978.750977
2642.037109	8829.088867
2640.633789	8718.677734
2639.229492	8749.020508
2637.826172	8725.927734
2636.421875	8898.692383
2635.017578	8941.442383
2633.613281	8827.555664
2632.208008	8886.316406
2630.802734	8720.892578
2629.397461	8964.633789
2627.991211	8865.057617
2626.584961	8886.423828
2625.178711	8934.446289
2623.772461	8820.715820
2622.365234	9012.663086
2620.958008	8964.695313
2619.550781	8978.913086
2618.142578	8994.901367
2616.735352	8970.045898
2615.326172	8950.524414
2613.917969	8875.990234
2612.508789	8952.317383
2611.099609	9103.127930
2609.690430	8907.988281
2608.281250	8980.714844
2606.871094	9055.186523
2605.460938	8978.944336
2604.049805	9025.026367
2602.639648	8899.202148
2601.228516	8952.368164
2599.817383	8929.345703
2598.405273	9046.239258
2596.993164	9007.269531
2595.581055	9154.196289
2594.168945	8998.403320
2592.755859	8971.852539
2591.342773	9088.620117
2589.929688	9118.665039
2588.516602	9125.707031
2587.102539	9072.626953
2585.688477	9023.102539
2584.273438	8971.830078
2582.859375	9180.348633
2581.444336	9245.672852
2580.028320	9217.349609
2578.613281	9204.931641
2577.197266	9049.492188
2575.781250	9061.826172
2574.365234	9150.053711
2572.948242	9067.068359
2571.531250	9294.642578
2570.114258	9232.828125
2568.696289	9328.004883
2567.278320	9366.715820
2565.860352	9169.174805
2564.442383	9385.925781
2563.023438	9255.424805
2561.604492	9346.975586
2560.185547	9501.906250
2558.766602	9244.649414
2557.346680	9404.821289
2555.926758	9300.850586
2554.505859	9406.380859
2553.084961	9283.090820
2551.665039	9260.140625
2550.243164	9566.156250
2548.822266	9486.875977
2547.400391	9430.487305
2545.978516	9549.928711
2544.555664	9347.655273
2543.133789	9433.674805
2541.710938	9301.785156
2540.287109	9508.990234
2538.864258	9617.757813
2537.440430	9485.909180
2536.016602	9343.578125
2534.591797	9273.270508
2533.167969	9545.207031
2531.743164	9490.677734
2530.317383	9444.941406
2528.892578	9625.477539
2527.466797	9509.587891
2526.041016	9581.338867
2524.614258	9414.670898
2523.187500	9649.395508
2521.760742	9668.508789
2520.333984	9687.614258
2518.906250	9727.729492
2517.479492	9725.801758
2516.050781	9685.356445
2514.623047	9634.423828
2513.194336	9685.015625
2511.765625	9609.606445
2510.336914	9667.179688
2508.907227	9607.543945
2507.477539	9843.461914
2506.047852	9635.203125
2504.617188	9799.353516
2503.186523	9816.633789
2501.755859	9669.658203
2500.325195	9739.366211
2498.893555	9749.659180
2497.461914	9794.874023
2496.030273	9777.216797
2494.597656	9852.082031
2493.166016	9872.815430
2491.732422	9832.467773
2490.299805	9895.063477
2488.866211	9973.333008
2487.432617	9873.696289
2485.999023	9795.021484
2484.564453	9904.638672
2483.130859	9841.673828
2481.695313	9881.538086
2480.260742	9898.739258
2478.825195	10001.279297
2477.389648	10030.638672
2475.954102	9908.510742
2474.517578	9960.504883
2473.081055	9908.054688
2471.644531	9965.247070
2470.207031	10184.208984
2468.770508	10095.216797
2467.332031	9941.916992
2465.894531	10131.193359
2464.456055	10002.282227
2463.017578	10092.406250
2461.579102	10107.776367
2460.140625	10168.308594
2458.701172	10166.287109
2457.261719	10127.796875
2455.821289	10092.793945
2454.380859	10158.487305
2452.940430	10126.961914
2451.500000	10170.063477
2450.058594	10268.662109
2448.617188	10096.636719
2447.175781	10162.259766
2445.734375	10286.807617
2444.291992	10232.755859
2442.849609	10175.259766
2441.407227	10287.598633
2439.963867	10327.129883
2438.520508	10103.365234
2437.077148	10189.673828
2435.632813	10296.723633
2434.188477	10362.185547
2432.744141	10247.625000
2431.299805	10454.960938
2429.854492	10482.289063
2428.409180	10411.013672
2426.963867	10299.992188
2425.517578	10356.726563
2424.071289	10404.793945
2422.625000	10395.808594
2421.177734	10471.496094
2419.730469	10422.763672
2418.283203	10446.595703
2416.835938	10416.882813
2415.387695	10613.365234
2413.939453	10524.937500
2412.491211	10427.915039
2411.041992	10513.839844
2409.593750	10339.222656
2408.143555	10633.838867
2406.693359	10629.994141
2405.244141	10443.386719
2403.794922	10648.166016
2402.343750	10508.162109
2400.892578	10693.890625
2399.441406	10731.381836
2397.990234	10698.237305
2396.539063	10496.336914
2395.085938	10707.743164
2393.634766	10645.356445
2392.181641	10560.620117
2390.728516	10742.632813
2389.275391	10644.146484
2387.822266	10562.899414
2386.369141	10696.648438
2384.914063	10654.967773
2383.460938	10707.850586
2382.005859	10703.994141
2380.550781	10829.014648
2379.095703	10685.976563
2377.640625	10766.290039
2376.183594	10855.158203
2374.728516	10815.216797
2373.271484	10950.386719
2371.814453	10903.576172
2370.357422	10887.670898
2368.900391	10791.137695
2367.443359	10771.829102
2365.986328	10924.019531
2364.527344	10957.842773
2363.068359	10972.794922
2361.611328	10967.174805
2360.152344	10928.998047
2358.693359	11005.621094
2357.232422	10936.620117
2355.773438	10751.193359
2354.312500	10815.819336
2352.851563	11137.193359
2351.392578	11040.834961
2349.931641	11093.383789
2348.468750	11058.660156
2347.007813	10953.820313
2345.546875	10886.644531
2344.083984	11079.381836
2342.621094	11147.252930
2341.158203	11066.404297
2339.695313	11047.102539
2338.232422	11145.688477
2336.769531	11172.495117
2335.304688	11209.537109
2333.839844	11161.194336
2332.375000	11223.828125
2330.910156	11293.263672
2329.445313	11239.812500
2327.980469	11176.145508
2326.515625	11293.304688
2325.048828	11077.876953
2323.582031	11321.177734
2322.115234	11194.470703
2320.648438	11272.332031
2319.181641	11442.175781
2317.714844	11286.556641
2316.246094	11250.230469
2314.779297	11213.917969
2313.310547	11344.474609
2311.841797	11260.492188
2310.373047	11290.572266
2308.904297	11249.173828
2307.433594	11183.973633
2305.964844	11321.206055
2304.494141	11235.609375
2303.023438	11406.779297
2301.552734	11443.589844
2300.082031	11437.896484
2298.611328	11523.961914
2297.138672	11377.248047
2295.667969	11534.626953
2294.195313	11428.725586
2292.722656	11489.252930
2291.250000	11386.796875
2289.777344	11498.221680
2288.302734	11604.511719
2286.830078	11398.606445
2285.355469	11464.165039
2283.880859	11495.780273
2282.408203	11508.732422
2280.931641	11557.276367
2279.457031	11460.049805
2277.982422	11520.443359
2276.505859	11618.083008
2275.029297	11676.725586
2273.554688	11625.272461
2272.078125	11621.245117
2270.599609	11491.957031
2269.123047	11660.581055
2267.646484	11675.160156
2266.167969	11496.876953
2264.689453	11684.001953
2263.210938	11573.428711
2261.732422	11782.440430
2260.253906	11648.225586
2258.775391	11777.707031
2257.294922	11677.338867
2255.814453	11754.391602
2254.333984	11822.966797
2252.853516	11820.590820
2251.373047	11765.877930
2249.892578	11847.911133
2248.412109	11840.466797
2246.929688	11804.340820
2245.447266	11839.081055
2243.964844	11905.851563
2242.482422	11962.477539
2241.000000	11882.518555
2239.517578	11982.950195
2238.033203	11847.404297
2236.548828	11973.076172
2235.066406	11879.700195
2233.582031	11924.468750
2232.095703	12034.891602
2230.611328	12066.141602
2229.126953	12036.782227
2227.640625	12052.872070
2226.154297	12107.653320
2224.667969	12095.123047
2223.181641	12074.187500
2221.695313	11999.451172
2220.208984	12065.964844
2218.720703	12147.579102
2217.234375	12203.951172
2215.746094	12169.570313
2214.257813	12118.404297
2212.769531	12162.990234
2211.279297	12284.798828
2209.791016	12221.886719
2208.300781	12078.431641
2206.812500	12161.583984
2205.322266	12335.304688
2203.832031	12311.011719
2202.341797	12266.602539
2200.849609	12579.370117
2199.359375	12491.334961
2197.867188	12393.278320
2196.375000	12424.295898
2194.882813	12359.799805
2193.390625	12419.288086
2191.898438	12520.620117
2190.404297	12496.328125
2188.912109	12351.509766
2187.417969	12447.771484
2185.923828	12497.136719
2184.429688	12464.500977
2182.935547	12431.877930
2181.439453	12477.870117
2179.945313	12413.486328
2178.449219	12487.881836
2176.953125	12471.991211
2175.458984	12426.026367
2173.960938	12600.616211
2172.464844	12644.844727
2170.968750	12463.596680
2169.470703	12397.631836
2167.972656	12628.842773
2166.474609	12511.128906
2164.976563	12617.069336
2163.478516	12661.236328
2161.980469	12727.069336
2160.480469	12546.055664
2158.982422	12565.198242
2157.482422	12781.040039
2155.982422	12675.124023
2154.482422	12832.533203
2152.980469	12821.610352
2151.480469	12707.419922
2149.978516	12561.633789
2148.476563	12722.265625
2146.974609	12859.526367
2145.472656	12690.495117
2143.970703	12839.353516
2142.468750	12800.158203
2140.964844	12812.541016
2139.462891	12868.155273
2137.958984	12910.445313
2136.455078	13007.573242
2134.949219	12915.197266
2133.445313	12787.962891
2131.941406	13016.297852
2130.435547	12940.582031
2128.929688	13090.743164
2127.423828	12789.242188
2125.917969	12876.292969
2124.412109	13059.565430
2122.906250	13139.887695
2121.398438	12908.293945
2119.890625	13030.078125
2118.382813	13140.204102
2116.875000	13233.706055
2115.367188	13053.663086
2113.859375	13127.254883
2112.349609	13295.262695
2110.841797	13198.144531
2109.332031	13059.659180
2107.822266	12886.453125
2106.312500	13125.561523
2104.800781	13055.037109
2103.291016	13186.442383
2101.779297	13193.699219
2100.269531	13121.547852
2098.757813	13165.200195
2097.246094	13117.885742
2095.732422	13159.866211
2094.220703	13157.199219
2092.707031	13382.589844
2091.195313	13186.564453
2089.681641	13254.924805
2088.167969	13311.694336
2086.654297	13315.601563
2085.138672	13271.629883
2083.625000	13430.695313
2082.109375	13352.061523
2080.593750	13567.140625
2079.078125	13377.988281
2077.562500	13484.125000
2076.046875	13471.497070
2074.531250	13533.058594
2073.013672	13363.842773
2071.496094	13535.808594
2069.978516	13467.160156
2068.460938	13380.418945
2066.943359	13530.865234
2065.425781	13490.249023
2063.906250	13556.652344
2062.386719	13435.397461
2060.869141	13672.920898
2059.349609	13548.399414
2057.828125	13568.677734
2056.308594	13623.482422
2054.789063	13688.129883
2053.267578	13445.342773
2051.746094	13473.839844
2050.224609	13625.566406
2048.703125	13624.442383
2047.181641	13808.925781
2045.658203	13590.990234
2044.136719	13701.519531
2042.613281	13885.873047
2041.089844	13717.289063
2039.566406	13763.727539
2038.042969	13777.336914
2036.517578	13635.118164
2034.994141	13884.889648
2033.468750	13914.858398
2031.943359	13885.801758
2030.417969	13840.368164
2028.892578	13824.446289
2027.367188	13913.375977
2025.839844	13922.011719
2024.314453	13786.539063
2022.787109	14026.043945
2021.259766	13944.621094
2019.732422	13967.969727
2018.203125	13811.324219
2016.675781	13936.113281
2015.146484	14106.646484
2013.619141	13971.324219
2012.089844	13943.958008
2010.560547	13831.605469
2009.029297	13982.407227
2007.500000	14067.791992
2005.968750	14046.958984
2004.439453	13986.936523
2002.908203	14101.658203
2001.376953	13995.935547
1999.843750	14074.697266
1998.312500	14083.254883
1996.781250	14103.228516
1995.248047	14211.280273
1993.714844	14094.223633
1992.181641	14127.224609
1990.648438	14036.314453
1989.115234	14082.352539
1987.580078	14286.438477
1986.044922	14141.784180
1984.511719	14140.531250
1982.976563	14230.478516
1981.441406	14265.028320
1979.904297	14252.353516
1978.369141	14233.172852
1976.832031	14365.333008
1975.294922	14302.208984
1973.759766	14300.919922
1972.220703	14359.800781
1970.683594	14262.569336
1969.146484	14405.963867
1967.607422	14177.115234
1966.068359	14452.086914
1964.531250	14283.429688
1962.992188	14210.672852
1961.451172	14345.808594
1959.912109	14391.589844
1958.371094	14382.160156
1956.832031	14496.077148
1955.291016	14596.965820
1953.750000	14444.737305
1952.208984	14417.459961
1950.666016	14412.895508
1949.125000	14638.554688
1947.582031	14496.164063
1946.039063	14523.996094
1944.496094	14397.888672
1942.953125	14443.547852
1941.410156	14528.057617
1939.865234	14406.881836
1938.322266	14418.510742
1936.777344	14616.276367
1935.232422	14561.504883
1933.687500	14374.081055
1932.142578	14505.408203
1930.595703	14588.162109
1929.050781	14593.266602
1927.503906	14669.500000
1925.957031	14651.955078
1924.410156	14642.496094
1922.863281	14574.876953
1921.314453	14533.129883
1919.767578	14762.718750
1918.218750	14714.489258
1916.669922	14675.965820
1915.121094	14758.506836
1913.572266	14686.100586
1912.021484	14683.096680
1910.472656	14797.844727
1908.921875	14664.189453
1907.371094	14757.931641
1905.820313	14646.906250
1904.269531	14711.600586
1902.718750	14927.737305
1901.166016	14955.291992
1899.615234	15100.416992
1898.062500	14797.795898
1896.509766	14957.381836
1894.957031	14891.541016
1893.402344	14808.022461
1891.849609	15031.869141
1890.294922	14784.263672
1888.740234	14998.371094
1887.185547	14996.908203
1885.630859	14791.260742
1884.076172	14931.291992
1882.519531	14873.591797
1880.964844	14905.894531
1879.408203	15071.515625
1877.851563	15031.487305
1876.294922	15097.456055
1874.736328	15055.832031
1873.179688	15177.945313
1871.621094	15211.745117
1870.064453	15139.635742
1868.505859	15061.138672
1866.947266	15149.467773
1865.386719	15003.653320
1863.828125	15269.904297
1862.267578	15228.305664
1860.708984	15164.289063
1859.148438	15105.103516
1857.587891	15234.958008
1856.025391	15227.028320
1854.464844	15161.458984
1852.902344	15155.147461
1851.341797	15208.056641
1849.779297	15249.741211
1848.216797	15198.616211
1846.652344	15296.267578
1845.089844	15328.311523
1843.525391	15374.730469
1841.962891	15449.903320
1840.398438	15362.026367
1838.833984	15347.687500
1837.267578	15410.037109
1835.703125	15386.109375
1834.136719	15370.174805
1832.572266	15520.289063
1831.005859	15390.998047
1829.439453	15389.433594
1827.873047	15531.470703
1826.304688	15560.185547
1824.738281	15662.254883
1823.169922	15770.660156
1821.601563	15601.614258
1820.033203	15555.372070
1818.464844	15505.959961
1816.896484	15596.778320
1815.326172	15614.281250
1813.755859	15619.035156
1812.185547	15724.101563
1810.615234	15892.803711
1809.044922	15612.587891
1807.474609	15630.064453
1805.902344	15620.486328
1804.332031	15661.813477
1802.759766	15719.025391
1801.187500	15758.723633
1799.615234	15583.794922
1798.041016	15744.293945
1796.468750	15586.917969
1794.894531	15683.799805
1793.320313	15748.874023
1791.746094	15864.737305
1790.171875	15651.891602
1788.597656	15732.802734
1787.021484	15804.157227
1785.445313	15734.260742
1783.871094	15751.645508
1782.294922	15691.302734
1780.716797	15819.691406
1779.140625	15871.924805
1777.564453	15810.006836
1775.986328	16087.259766
1774.408203	15887.472656
1772.830078	15735.290039
1771.251953	15949.032227
1769.673828	15850.737305
1768.093750	16181.518555
1766.513672	15981.913086
1764.935547	15719.087891
1763.355469	15726.923828
1761.773438	15905.596680
1760.193359	15845.382813
1758.613281	15775.706055
1757.031250	15889.439453
1755.449219	15778.686523
1753.867188	15974.541992
1752.285156	16054.983398
1750.701172	16007.444336
1749.119141	16141.538086
1747.535156	15934.527344
1745.951172	15945.448242
1744.367188	16114.191406
1742.783203	16185.031250
1741.199219	15971.868164
1739.613281	16173.621094
1738.029297	16186.053711
1736.443359	16136.991211
1734.857422	16034.352539
1733.271484	16176.035156
1731.683594	16169.544922
1730.097656	16295.384766
1728.509766	16199.094727
1726.921875	16159.532227
1725.333984	16129.431641
1723.746094	16281.931641
1722.158203	16299.028320
1720.568359	16445.134766
1718.978516	16267.126953
1717.390625	16222.875977
1715.800781	16324.876953
1714.208984	16462.992188
1712.619141	16406.150391
1711.027344	16357.189453
1709.437500	16473.214844
1707.845703	16458.814453
1706.253906	16441.279297
1704.662109	16453.582031
1703.068359	16506.695313
1701.476563	16351.041016
1699.882813	16799.582031
1698.289063	16488.615234
1696.695313	16616.960938
1695.101563	16792.300781
1693.505859	16787.259766
1691.912109	16371.521484
1690.316406	16531.126953
1688.720703	16571.580078
1687.125000	16536.820313
1685.529297	16737.013672
1683.933594	16965.308594
1682.335938	16614.232422
1680.738281	16839.326172
1679.140625	16734.119141
1677.542969	16711.878906
1675.945313	16893.009766
1674.347656	16770.648438
1672.748047	16907.906250
1671.148438	16805.916016
1669.548828	16972.804688
1667.949219	16870.839844
1666.349609	16818.912109
1664.748047	17043.488281
1663.148438	16994.667969
1661.546875	16760.060547
1659.945313	16806.542969
1658.343750	17007.519531
1656.742188	16908.810547
1655.138672	16948.990234
1653.537109	17140.449219
1651.933594	17065.162109
1650.330078	17169.207031
1648.726563	17076.794922
1647.121094	16975.070313
1645.517578	16974.667969
1643.912109	17170.552734
1642.306641	17118.708984
1640.701172	17140.074219
1639.095703	17117.837891
1637.490234	17190.558594
1635.884766	17213.449219
1634.277344	17390.363281
1632.669922	17298.087891
1631.062500	17261.837891
1629.455078	17306.458984
1627.845703	17206.482422
1626.238281	17039.710938
1624.628906	17138.738281
1623.019531	17284.330078
1621.410156	17151.816406
1619.800781	17356.359375
1618.191406	17259.595703
1616.580078	17301.029297
1614.968750	17421.601563
1613.359375	17383.845703
1611.746094	17401.955078
1610.134766	17289.765625
1608.523438	17276.871094
1606.910156	17586.466797
1605.298828	17342.548828
1603.685547	17541.966797
1602.070313	17527.476563
1600.457031	17581.152344
1598.843750	17524.839844
1597.228516	17702.371094
1595.613281	17416.923828
1593.998047	17589.759766
1592.382813	17706.810547
1590.767578	17642.787109
1589.152344	17592.712891
1587.535156	17862.796875
1585.917969	17520.455078
1584.300781	17759.521484
1582.683594	17952.119141
1581.066406	17687.234375
1579.447266	17706.728516
1577.828125	17681.421875
1576.210938	17728.705078
1574.591797	17752.808594
1572.970703	17798.511719
1571.351563	17871.974609
1569.730469	17882.142578
1568.111328	17701.009766
1566.490234	17876.242188
1564.869141	17906.447266
1563.248047	17800.964844
1561.625000	17858.916016
1560.003906	17865.984375
1558.380859	17822.205078
1556.757813	18003.347656
1555.134766	18112.029297
1553.511719	17963.513672
1551.886719	18005.957031
1550.263672	18089.939453
1548.638672	18047.699219
1547.013672	18065.478516
1545.388672	18204.767578
1543.761719	18001.048828
1542.136719	17932.718750
1540.509766	18302.535156
1538.882813	18232.630859
1537.255859	18327.173828
1535.628906	18271.119141
1534.001953	18147.503906
1532.373047	18042.367188
1530.746094	18089.271484
1529.117188	18113.128906
1527.488281	18256.681641
1525.859375	18168.484375
1524.228516	18380.996094
1522.599609	18349.554688
1520.968750	18419.330078
1519.337891	18311.236328
1517.707031	18351.867188
1516.076172	18395.542969
1514.443359	18175.673828
1512.810547	18377.142578
1511.179688	18290.607422
1509.546875	18407.751953
1507.914063	18498.822266
1506.279297	18283.746094
1504.646484	18376.332031
1503.011719	18445.929688
1501.376953	18416.074219
1499.742188	18462.693359
1498.107422	18403.796875
1496.472656	18696.503906
1494.835938	18509.203125
1493.201172	18572.566406
1491.564453	18597.710938
1489.927734	18349.451172
1488.289063	18786.925781
1486.652344	18680.710938
1485.013672	18461.587891
1483.376953	18648.486328
1481.738281	18649.166016
1480.099609	18768.826172
1478.458984	18778.626953
1476.820313	18930.230469
1475.179688	18904.929688
1473.539063	18833.912109
1471.898438	18822.355469
1470.257813	18841.271484
1468.617188	18759.646484
1466.974609	18879.076172
1465.333984	18838.583984
1463.691406	18965.554688
1462.048828	18777.435547
1460.406250	19208.683594
1458.761719	19081.439453
1457.119141	19325.363281
1455.474609	18957.884766
1453.830078	19145.476563
1452.185547	19028.988281
1450.539063	19327.421875
1448.894531	19157.763672
1447.248047	19311.734375
1445.603516	19284.910156
1443.957031	19201.912109
1442.308594	19416.498047
1440.662109	19515.638672
1439.015625	19362.839844
1437.367188	19367.886719
1435.718750	19386.580078
1434.070313	19567.533203
1432.421875	19546.753906
1430.771484	19475.958984
1429.123047	19617.371094
1427.472656	19625.380859
1425.822266	19503.103516
1424.171875	19620.183594
1422.521484	19688.755859
1420.869141	19701.281250
1419.218750	19765.263672
1417.566406	19874.619141
1415.914063	19651.062500
1414.261719	19923.765625
1412.607422	19794.058594
1410.955078	19767.224609
1409.300781	19932.394531
1407.646484	19994.714844
1405.992188	19978.429688
1404.337891	20052.798828
1402.683594	19933.794922
1401.027344	19811.818359
1399.371094	19892.210938
1397.714844	19798.972656
1396.058594	20016.669922
1394.402344	19977.763672
1392.744141	20077.660156
1391.087891	19985.964844
1389.429688	20085.816406
1387.771484	20181.101563
1386.113281	19928.156250
1384.453125	20165.089844
1382.794922	20252.759766
1381.134766	20081.298828
1379.474609	20348.167969
1377.814453	20271.617188
1376.154297	20193.591797
1374.492188	20157.740234
1372.832031	20303.982422
1371.169922	20408.035156
1369.507813	20235.281250
1367.845703	20178.392578
1366.181641	20258.347656
1364.519531	20312.712891
1362.855469	20356.533203
1361.191406	20274.119141
1359.527344	20325.437500
1357.863281	20501.394531
1356.199219	20414.492188
1354.533203	20380.171875
1352.867188	20432.921875
1351.201172	20338.582031
1349.535156	20473.835938
1347.869141	20489.027344
1346.201172	20408.228516
1344.535156	20480.404297
1342.867188	20757.921875
1341.199219	20719.080078
1339.531250	20759.671875
1337.861328	20717.847656
1336.193359	20599.650391
1334.523438	20887.326172
1332.853516	20817.050781
1331.183594	20803.685547
1329.511719	20948.960938
1327.841797	20699.162109
1326.169922	20926.671875
1324.500000	21086.781250
1322.828125	21012.058594
1321.154297	21089.855469
1319.482422	21073.453125
1317.808594	21194.537109
1316.136719	20928.611328
1314.462891	21191.578125
1312.789063	21209.511719
1311.113281	21372.267578
1309.439453	21314.021484
1307.763672	21366.240234
1306.087891	21427.390625
1304.412109	21630.238281
1302.736328	21509.335938
1301.060547	21600.236328
1299.382813	21722.406250
1297.707031	21641.802734
1296.029297	21671.513672
1294.351563	21795.076172
1292.671875	21833.677734
1290.994141	21759.070313
1289.314453	21892.957031
1287.636719	21877.914063
1285.957031	21798.876953
1284.275391	21907.367188
1282.595703	21963.740234
1280.914063	21962.078125
1279.234375	22140.357422
1277.552734	22039.037109
1275.871094	22123.574219
1274.189453	22255.628906
1272.505859	22097.882813
1270.822266	22259.597656
1269.140625	22297.966797
1267.457031	22355.623047
1265.771484	22196.498047
1264.087891	22546.554688
1262.404297	22412.683594
1260.718750	22093.406250
1259.033203	22336.458984
1257.347656	22533.431641
1255.662109	22421.910156
1253.974609	22421.617188
1252.287109	22508.765625
1250.601563	22542.533203
1248.914063	22663.691406
1247.224609	22587.800781
1245.537109	22546.001953
1243.849609	22671.519531
1242.160156	22662.283203
1240.470703	22709.285156
1238.781250	22788.816406
1237.091797	22678.964844
1235.400391	22925.591797
1233.708984	22892.644531
1232.019531	22810.925781
1230.328125	22822.353516
1228.634766	23197.296875
1226.943359	22970.775391
1225.250000	23056.013672
1223.558594	23015.689453
1221.865234	22970.949219
1220.171875	23177.175781
1218.476563	23088.142578
1216.783203	23041.937500
1215.087891	23181.626953
1213.392578	23141.318359
1211.697266	23392.994141
1210.001953	23420.472656
1208.306641	23515.738281
1206.609375	23577.070313
1204.912109	23597.119141
1203.214844	23450.705078
1201.517578	23559.134766
1199.820313	23536.470703
1198.121094	23681.634766
1196.423828	23754.617188
1194.724609	23676.005859
1193.025391	23819.572266
1191.326172	23776.277344
1189.625000	23571.242188
1187.923828	23913.214844
1186.224609	24025.734375
1184.523438	23866.328125
1182.822266	24075.781250
1181.119141	24078.015625
1179.417969	24235.927734
1177.714844	24101.568359
1176.011719	24395.933594
1174.308594	24406.900391
1172.605469	24212.421875
1170.900391	24264.498047
1169.197266	24558.572266
1167.492188	24500.564453
1165.787109	24617.052734
1164.080078	24899.134766
1162.375000	24707.720703
1160.667969	24510.525391
1158.962891	24745.566406
1157.255859	24788.640625
1155.548828	24739.445313
1153.839844	24754.683594
1152.132813	25194.382813
1150.423828	25120.250000
1148.714844	25154.414063
1147.005859	25286.564453
1145.296875	25130.558594
1143.585938	25212.943359
1141.876953	24964.919922
1140.166016	25158.376953
1138.455078	25340.058594
1136.744141	25363.888672
1135.033203	25346.808594
1133.320313	25575.058594
1131.607422	25544.798828
1129.894531	25548.123047
1128.181641	25682.783203
1126.468750	25667.103516
1124.753906	25648.513672
1123.041016	25863.273438
1121.326172	25698.837891
1119.611328	25688.994141
1117.896484	26018.742188
1116.179688	25772.771484
1114.464844	26001.837891
1112.748047	26034.171875
1111.031250	26220.849609
1109.314453	26254.574219
1107.595703	26017.541016
1105.878906	26278.318359
1104.160156	26192.697266
1102.441406	26368.951172
1100.722656	26367.697266
1099.003906	26325.726563
1097.283203	26384.082031
1095.562500	26388.632813
1093.843750	26394.632813
1092.123047	26280.046875
1090.400391	26740.699219
1088.679688	26406.800781
1086.957031	26505.707031
1085.236328	26674.246094
1083.513672	26652.593750
1081.789063	26658.517578
1080.066406	26712.308594
1078.341797	26725.464844
1076.619141	26941.619141
1074.894531	26918.474609
1073.169922	26848.957031
1071.443359	26778.019531
1069.718750	26880.964844
1067.992188	26912.888672
1066.265625	26836.183594
1064.539063	26756.615234
1062.812500	26937.638672
1061.085938	27031.748047
1059.357422	27108.453125
1057.628906	26905.921875
1055.900391	27112.787109
1054.171875	26966.734375
1052.443359	27086.750000
1050.712891	27047.720703
1048.982422	27114.197266
1047.251953	27398.806641
1045.521484	27333.728516
1043.791016	27547.402344
1042.058594	27394.242188
1040.328125	27255.582031
1038.595703	27643.761719
1036.863281	27548.390625
1035.128906	27481.912109
1033.396484	27626.037109
1031.662109	27530.726563
1029.927734	27643.060547
1028.193359	27627.058594
1026.458984	27533.246094
1024.724609	27958.146484
1022.988281	27979.537109
1021.251953	28107.486328
1019.515625	27830.781250
1017.779297	27832.025391
1016.042969	27817.435547
1014.304688	27814.361328
1012.568359	28127.781250
1010.830078	28009.574219
1009.089844	28167.509766
1007.351563	27950.140625
1005.613281	28155.453125
1003.873047	28022.962891
1002.132813	28176.443359
1000.392578	28316.929688
998.652344	28135.654297
996.910156	28405.310547
995.169922	28433.679688
993.427734	28423.285156
991.685547	28097.208984
989.941406	28210.261719
988.199219	28406.455078
986.455078	28408.972656
984.712891	28457.365234
982.968750	28194.689453
981.222656	28552.648438
979.478516	28449.099609
977.734375	28738.089844
975.988281	28495.623047
974.242188	28493.808594
972.496094	28609.380859
970.748047	28654.769531
969.001953	28637.177734
967.253906	28768.375000
965.505859	28594.857422
963.757813	28720.283203
962.009766	28831.357422
960.259766	28905.218750
958.511719	29076.222656
956.761719	29049.980469
955.011719	28906.613281
953.259766	28884.699219
951.509766	29105.529297
949.757813	29022.193359
948.007813	29282.859375
946.255859	29230.910156
944.501953	29124.767578
942.750000	29332.462891
940.996094	29378.927734
939.244141	29322.716797
937.490234	29276.507813
935.734375	29322.947266
933.980469	29477.650391
932.224609	29390.121094
930.470703	29285.537109
928.714844	29549.781250
926.958984	29415.308594
925.201172	29322.167969
923.445313	29727.101563
921.687500	29724.978516
919.929688	29651.738281
918.171875	30033.582031
916.414063	29643.253906
914.654297	29672.416016
912.894531	30069.634766
911.136719	30074.535156
909.375000	30035.394531
907.615234	30034.613281
905.855469	29860.603516
904.093750	30014.593750
902.332031	30083.359375
900.570313	30159.187500
898.808594	30121.484375
897.044922	30219.962891
895.283203	30315.558594
893.519531	30351.566406
891.755859	30294.003906
889.992188	30606.341797
888.226563	30303.628906
886.462891	30535.083984
884.697266	30232.513672
882.931641	30380.339844
881.166016	30407.771484
879.398438	30470.572266
877.632813	30222.039063
875.865234	30463.103516
874.097656	30477.755859
872.330078	30554.621094
870.562500	30632.863281
868.792969	30547.105469
867.023438	30492.472656
865.253906	30603.169922
863.484375	30343.720703
861.714844	30556.082031
859.943359	30817.767578
858.173828	30541.494141
856.402344	30760.726563
854.628906	30734.337891
852.857422	30590.865234
851.085938	30705.564453
849.312500	30522.671875
847.539063	30647.203125
845.765625	30727.980469
843.992188	30677.664063
842.216797	30926.060547
840.441406	31025.033203
838.667969	30998.619141
836.892578	30855.349609
835.115234	30819.126953
833.339844	30581.658203
831.562500	30883.210938
829.785156	30837.152344
828.007813	30895.191406
826.230469	30947.580078
824.451172	31078.671875
822.673828	30952.484375
820.894531	30973.902344
819.115234	30996.714844
817.335938	31145.937500
815.554688	30901.867188
813.775391	31331.855469
811.994141	31360.177734
810.212891	31413.750000
808.431641	31464.488281
806.648438	31627.431641
804.867188	31607.970703
803.083984	31664.238281
801.300781	31700.851563
799.515625	31500.568359
797.732422	31584.843750
795.947266	31652.265625
794.164063	31711.253906
792.378906	31767.412109
790.591797	31619.126953
788.806641	31603.886719
787.019531	31844.763672
785.234375	31945.611328
783.447266	31754.041016
781.658203	31910.804688
779.871094	31975.210938
778.082031	32000.443359
776.294922	32190.591797
774.505859	31904.140625
772.716797	32020.177734
770.925781	31972.736328
769.136719	32004.912109
767.345703	32097.109375
765.554688	32165.535156
763.763672	31897.591797
761.970703	32253.455078
760.179688	32132.078125
758.386719	31974.490234
756.593750	32264.562500
754.800781	32164.167969
753.005859	32363.474609
751.212891	32129.322266
749.417969	32410.744141
747.623047	32051.320313
745.828125	32257.433594
744.033203	32328.406250
742.236328	32210.037109
740.439453	32525.916016
738.642578	32091.714844
736.845703	32319.841797
735.048828	32433.826172
733.250000	32467.111328
731.451172	32294.638672
729.652344	32504.447266
727.853516	32241.716797
726.054688	32448.662109
724.253906	32630.515625
722.455078	32376.253906
720.654297	32427.535156
718.853516	32445.478516
717.050781	32514.759766
715.250000	32603.431641
713.447266	32588.029297
711.644531	32299.423828
709.841797	32429.673828
708.037109	32465.601563
706.234375	32462.707031
704.429688	32772.964844
702.625000	32628.695313
700.820313	32575.898438
699.013672	32698.982422
697.208984	32668.339844
695.402344	32695.841797
693.595703	32663.826172
691.789063	32487.933594
689.982422	32617.810547
688.173828	32634.226563
686.365234	32718.382813
684.556641	32892.351563
682.748047	32860.320313
680.939453	32416.548828
679.128906	32677.492188
677.318359	32884.457031
675.507813	32893.871094
673.697266	32936.414063
671.886719	32737.394531
670.074219	32876.542969
668.261719	32901.117188
666.449219	33056.714844
664.636719	32522.734375
662.824219	32973.386719
661.009766	32824.230469
659.195313	32786.765625
657.380859	32845.757813
655.566406	32815.187500
653.751953	32987.078125
651.935547	33017.070313
650.119141	32748.320313
648.302734	32962.769531
646.486328	32619.841797
644.669922	32903.007813
642.851563	33066.390625
641.033203	32978.050781
639.214844	32764.640625
637.396484	32670.904297
635.578125	32809.449219
633.757813	32965.792969
631.937500	32972.339844
630.117188	32901.976563
628.296875	32820.660156
626.474609	32912.335938
624.654297	32795.363281
622.832031	32807.417969
621.009766	32693.259766
619.185547	32673.783203
617.363281	32983.406250
615.539063	32795.246094
613.714844	32926.523438
611.890625	32712.416016
610.066406	32662.804688
608.242188	32733.750000
606.416016	32810.136719
604.589844	32627.726563
602.763672	32594.593750
600.937500	32566.947266
599.109375	32755.492188
597.281250	32995.933594
595.453125	32918.976563
593.625000	33006.132813
591.796875	32992.085938
589.966797	32634.992188
588.138672	32659.289063
586.308594	32844.777344
584.478516	32732.429688
582.646484	32835.882813
580.816406	32869.664063
578.984375	32554.000000
577.152344	32732.474609
575.320313	33097.785156
573.486328	32667.693359
571.654297	32685.095703
569.820313	32641.134766
567.986328	32792.121094
566.152344	32994.828125
564.316406	32783.226563
562.482422	32740.634766
560.646484	32614.978516
558.810547	32546.568359
556.974609	32603.429688
555.136719	32698.373047
553.300781	32266.654297
551.462891	32409.244141
549.625000	32621.136719
547.785156	32449.449219
545.947266	32419.232422
544.107422	32433.880859
542.267578	32419.982422
540.427734	32188.699219
538.587891	32163.988281
536.748047	32112.125000
534.906250	32228.650391
533.064453	31986.742188
531.222656	31937.660156
529.378906	31933.375000
527.537109	31789.359375
525.693359	31950.572266
523.849609	31887.972656
522.005859	31742.699219
520.162109	31676.101563
518.316406	31602.755859
516.470703	31292.345703
514.625000	31498.144531
512.779297	31623.951172
510.933594	31175.632813
509.085938	31423.277344
507.238281	31569.310547
505.390625	31623.271484
503.542969	31303.849609
501.695313	31260.462891
499.845703	31484.820313
497.996094	31226.466797
496.146484	31179.064453
494.296875	31076.281250
492.447266	31282.912109
490.595703	31196.353516
488.744141	31127.386719
486.892578	30978.792969
485.041016	31085.371094
483.187500	30885.568359
481.333984	30824.816406
479.480469	30842.324219
477.626953	30970.408203
475.773438	30715.517578
473.917969	30707.419922
472.064453	30751.884766
470.208984	30630.597656
468.351563	30635.988281
466.496094	30784.138672
464.638672	30516.146484
462.783203	30661.560547
460.925781	30504.074219
459.066406	30582.142578
457.208984	30602.322266
455.349609	30134.244141
453.490234	30505.488281
451.630859	30414.078125
449.771484	30244.746094
447.912109	30110.425781
446.050781	30000.345703
444.189453	29977.625000
442.328125	30113.382813
440.466797	29983.228516
438.603516	29892.058594
436.740234	29662.693359
434.876953	29756.796875
433.013672	29718.050781
431.150391	29558.609375
429.285156	29408.625000
427.419922	29622.007813
425.554688	29565.890625
423.689453	29328.896484
421.824219	29647.986328
419.957031	29376.250000
418.089844	29294.785156
416.222656	29564.130859
414.355469	29003.460938
412.488281	29165.687500
410.619141	29156.582031
408.750000	29143.466797
406.880859	29133.031250
405.011719	29037.023438
403.140625	29006.560547
401.269531	28738.214844
399.398438	28917.605469
397.527344	28696.150391
395.656250	28412.017578
393.783203	28504.562500
391.910156	28394.144531
390.037109	28206.359375
388.164063	28122.740234
386.291016	28215.257813
384.416016	28249.046875
382.541016	28262.814453
380.666016	28089.921875
378.791016	28057.062500
376.914063	27932.261719
375.039063	27924.763672
373.162109	27875.970703
371.285156	27634.093750
369.406250	27735.839844
367.529297	27817.570313
365.650391	27321.662109
363.771484	27504.568359
361.892578	27365.462891
360.011719	27339.466797
358.132813	27181.839844
356.251953	27194.443359
354.371094	27114.003906
352.490234	27171.792969
350.607422	27188.371094
348.724609	26904.759766
346.841797	26928.025391
344.958984	26833.119141
343.076172	26638.701172
341.193359	26512.046875
339.308594	26340.337891
337.423828	26280.125000
335.539063	26213.308594
333.652344	26407.718750
331.767578	26257.384766
329.880859	26027.599609
327.994141	25890.664063
326.107422	25723.318359
324.218750	26002.375000
322.330078	25658.966797
320.443359	25792.289063
318.552734	25740.255859
316.664063	25615.462891
314.775391	25535.705078
312.884766	25676.865234
310.994141	25414.638672
309.103516	25442.062500
307.210938	25242.123047
305.320313	25031.701172
303.427734	24843.828125
301.535156	24873.988281
299.642578	24941.109375
297.748047	24886.730469
295.853516	24873.294922
293.960938	24655.304688
292.064453	24686.783203
290.169922	24558.628906
288.275391	24331.615234
286.378906	24290.619141
284.482422	24476.382813
282.585938	24120.371094
280.687500	24042.546875
278.791016	23975.296875
276.892578	23954.173828
274.994141	23931.740234
273.095703	23723.685547
271.195313	23569.687500
269.294922	23531.558594
267.396484	23527.652344
265.494141	23421.146484
263.593750	23258.140625
261.691406	23321.345703
259.791016	23140.027344
257.888672	23006.099609
255.986328	23158.658203
254.082031	22885.541016
252.177734	22884.396484
250.275391	22883.251953
248.371094	22651.068359
246.464844	22737.906250
244.560547	22613.449219
242.654297	22570.380859
240.748047	22444.701172
238.841797	22187.949219
236.935547	22506.828125
235.027344	22286.873047
233.119141	21954.320313
231.210938	21999.222656
229.302734	21822.746094
227.392578	21994.679688
225.484375	21699.138672
223.574219	21609.232422
221.664063	21558.623047
219.751953	21504.109375
217.841797	21528.103516
215.929688	21358.533203
214.017578	21192.960938
212.105469	21183.015625
210.193359	20797.994141
208.279297	21028.554688
206.365234	21042.162109
204.451172	20926.464844
202.537109	20660.658203
200.621094	20644.308594
198.705078	20681.476563
196.789063	20551.603516
194.873047	20432.224609
192.957031	20290.724609
191.039063	20254.908203
189.123047	20329.921875
187.203125	20033.427734
185.285156	19979.445313
183.367188	20029.710938
181.447266	19870.246094
179.527344	19787.681641
177.607422	19632.244141
175.687500	19612.248047
173.765625	19381.435547
171.843750	19502.017578
169.921875	19414.417969
168.000000	19133.080078
166.078125	19127.511719
164.154297	18999.753906
162.230469	19291.832031
160.306641	18826.259766
158.382813	18812.966797
156.457031	18660.708984
154.531250	18498.128906
152.605469	18445.968750
150.679688	18427.574219
148.753906	18330.033203
146.826172	18191.019531
144.898438	18158.423828
142.970703	18160.853516
141.042969	17949.365234
139.113281	17924.619141
137.183594	17793.621094
135.253906	17605.673828
133.324219	17764.947266
131.394531	17399.671875
129.462891	17171.798828
127.531250	17186.083984
125.599609	16834.121094
123.667969	16528.892578
121.734375	15939.216797
119.802734	15485.596680
117.869141	15017.955078
115.935547	14604.814453
114.000000	14018.676758
112.066406	13927.677734
110.130859	13792.797852
108.195313	13710.928711
106.257813	13543.874023
104.322266	13498.243164
102.384766	13342.923828
100.447266	13141.220703
