#Wave		#Intensity
3501.405273	1423.952881
3500.167969	1415.873657
3498.929688	1468.111694
3497.691406	1360.826660
3496.453125	1439.297729
3495.213867	1479.392090
3493.975586	1464.988159
3492.736328	1482.869873
3491.497070	1488.641846
3490.256836	1429.875732
3489.017578	1490.097412
3487.777344	1487.800659
3486.537109	1461.317383
3485.296875	1463.057251
3484.055664	1426.514282
3482.814453	1510.853149
3481.573242	1460.216187
3480.332031	1453.899780
3479.089844	1497.919067
3477.848633	1517.766235
3476.606445	1483.266357
3475.363281	1418.596436
3474.121094	1450.518066
3472.877930	1456.278809
3471.634766	1520.358032
3470.391602	1421.548096
3469.147461	1415.249146
3467.904297	1515.478149
3466.660156	1481.030151
3465.416016	1563.126343
3464.170898	1402.128906
3462.926758	1470.150146
3461.681641	1391.559814
3460.436523	1525.809448
3459.190430	1397.056519
3457.945313	1446.965088
3456.699219	1528.958740
3455.453125	1458.455688
3454.206055	1484.255249
3452.959961	1459.910522
3451.712891	1475.674927
3450.465820	1529.520996
3449.218750	1441.045776
3447.970703	1442.777588
3446.722656	1440.501709
3445.474609	1498.319580
3444.226563	1465.993042
3442.978516	1491.746704
3441.729492	1433.407959
3440.480469	1411.119751
3439.231445	1480.895508
3437.981445	1426.593262
3436.731445	1482.336426
3435.481445	1442.054932
3434.231445	1499.773682
3432.981445	1475.498413
3431.730469	1507.202759
3430.479492	1508.916382
3429.228516	1442.691040
3427.977539	1466.392090
3426.725586	1414.181763
3425.473633	1435.881958
3424.221680	1535.444336
3422.969727	1497.224365
3421.716797	1510.912842
3420.463867	1456.747437
3419.210938	1516.326904
3417.958008	1438.243408
3416.704102	1437.971436
3415.450195	1503.502563
3414.196289	1469.326050
3412.942383	1461.074951
3411.687500	1399.018555
3410.433594	1468.492310
3409.178711	1480.167480
3407.922852	1517.731079
3406.667969	1505.495483
3405.412109	1439.506958
3404.156250	1500.944458
3402.900391	1444.932983
3401.643555	1452.619019
3400.386719	1460.302124
3399.129883	1483.895386
3397.873047	1404.064087
3396.616211	1475.380005
3395.358398	1453.232666
3394.100586	1431.093506
3392.842773	1442.746094
3391.583984	1508.039795
3390.326172	1436.240234
3389.067383	1503.496460
3387.808594	1401.938477
3386.548828	1494.985352
3385.289063	1522.492188
3384.030273	1424.957275
3382.769531	1559.615967
3381.509766	1462.110962
3380.249023	1531.256104
3378.988281	1411.979004
3377.727539	1437.487061
3376.466797	1437.214600
3375.205078	1486.491943
3373.943359	1476.302124
3372.681641	1440.359985
3371.419922	1471.780762
3370.157227	1521.013916
3368.894531	1445.481201
3367.631836	1419.470581
3366.369141	1403.366577
3365.105469	1430.806274
3363.842773	1483.957397
3362.578125	1473.784790
3361.314453	1528.885254
3360.050781	1407.968750
3358.786133	1449.220947
3357.521484	1466.736572
3356.255859	1434.836548
3354.991211	1466.180054
3353.725586	1438.243408
3352.459961	1434.020020
3351.194336	1512.742188
3349.927734	1455.195068
3348.661133	1466.763550
3347.394531	1496.091187
3346.127930	1515.540771
3344.860352	1477.766357
3343.593750	1412.389648
3342.326172	1479.177490
3341.057617	1498.615234
3339.790039	1541.703369
3338.521484	1500.017334
3337.252930	1448.493164
3335.984375	1430.484863
3334.714844	1503.102783
3333.446289	1508.726074
3332.176758	1431.639038
3330.906250	1523.903809
3329.636719	1472.433472
3328.366211	1513.484253
3327.095703	1532.874146
3325.825195	1469.626953
3324.554688	1510.654663
3323.283203	1484.801392
3322.011719	1555.304199
3320.740234	1484.237061
3319.467773	1450.541382
3318.195313	1505.289185
3316.922852	1508.932495
3315.650391	1451.678589
3314.377930	1569.243042
3313.104492	1517.890137
3311.831055	1441.034302
3310.557617	1515.349976
3309.283203	1546.462036
3308.009766	1457.871460
3306.735352	1553.720825
3305.460938	1537.734131
3304.185547	1427.624390
3302.911133	1392.061035
3301.635742	1501.571655
3300.359375	1428.769531
3299.083984	1483.364502
3297.807617	1569.285156
3296.531250	1467.129639
3295.254883	1500.143433
3293.978516	1486.151611
3292.701172	1489.784058
3291.423828	1417.080566
3290.146484	1465.733765
3288.869141	1500.672607
3287.590820	1474.956543
3286.312500	1445.338623
3285.034180	1470.484009
3283.754883	1466.293823
3282.476563	1452.331787
3281.197266	1487.232788
3279.917969	1457.640381
3278.637695	1531.598267
3277.357422	1466.851074
3276.078125	1536.873291
3274.796875	1464.339722
3273.516602	1466.012695
3272.235352	1452.071411
3270.954102	1498.626709
3269.672852	1416.400635
3268.391602	1468.796631
3267.109375	1486.068604
3265.827148	1515.033081
3264.544922	1471.855835
3263.262695	1543.692139
3261.979492	1442.063599
3260.696289	1467.117310
3259.413086	1503.849365
3258.128906	1532.776855
3256.845703	1464.330933
3255.561523	1479.626587
3254.277344	1504.648926
3252.992188	1465.439209
3251.707031	1525.478394
3250.422852	1462.934814
3249.136719	1400.414917
3247.851563	1477.933716
3246.565430	1487.373169
3245.279297	1461.818481
3243.993164	1517.902100
3242.707031	1519.555542
3241.419922	1490.123535
3240.132813	1452.933105
3238.845703	1472.076294
3237.557617	1485.386963
3236.270508	1471.514160
3234.982422	1523.638672
3233.694336	1509.763672
3232.405273	1505.594971
3231.116211	1443.232910
3229.827148	1537.990723
3228.538086	1438.803467
3227.249023	1529.648438
3225.958984	1498.342651
3224.668945	1525.188110
3223.378906	1546.210327
3222.087891	1437.429688
3220.797852	1551.430176
3219.506836	1471.737305
3218.215820	1502.434082
3216.923828	1504.082764
3215.631836	1556.050659
3214.339844	1505.442871
3213.047852	1549.651978
3211.755859	1481.656006
3210.462891	1473.637085
3209.169922	1517.826660
3207.876953	1469.207275
3206.583008	1523.044678
3205.289063	1505.361572
3203.995117	1520.530151
3202.701172	1570.463257
3201.407227	1506.429321
3200.112305	1544.760132
3198.817383	1486.547241
3197.521484	1459.239868
3196.226563	1499.487305
3194.930664	1543.578369
3193.634766	1545.212036
3192.338867	1475.481934
3191.041992	1492.554810
3189.745117	1546.253052
3188.448242	1466.924438
3187.151367	1547.588379
3185.854492	1526.096436
3184.556641	1504.612549
3183.258789	1506.250610
3181.959961	1500.184814
3180.662109	1505.673828
3179.363281	1528.486084
3178.064453	1512.795898
3176.764648	1518.279053
3175.465820	1542.999512
3174.166016	1479.226074
3172.866211	1609.720581
3171.565430	1555.572754
3170.265625	1478.376099
3168.964844	1480.015015
3167.664063	1537.383301
3166.362305	1523.639160
3165.061523	1500.295166
3163.759766	1519.213989
3162.458008	1463.235352
3161.155273	1568.548706
3159.853516	1510.662476
3158.550781	1510.372803
3157.248047	1492.814209
3155.944336	1492.527954
3154.640625	1411.683716
3153.337891	1465.108154
3152.033203	1526.181152
3150.729492	1516.303711
3149.424805	1458.515625
3148.120117	1465.900635
3146.815430	1473.282837
3145.509766	1574.520386
3144.205078	1505.274414
3142.899414	1527.962524
3141.592773	1493.210571
3140.287109	1485.268066
3138.980469	1479.242188
3137.673828	1599.494263
3136.367188	1520.758301
3135.059570	1526.203979
3133.752930	1545.032715
3132.445313	1565.765991
3131.136719	1529.148071
3129.829102	1507.832764
3128.520508	1587.792725
3127.211914	1472.867676
3125.902344	1524.154053
3124.593750	1457.025269
3123.284180	1498.748535
3121.974609	1452.647949
3120.664063	1530.617432
3119.354492	1553.220947
3118.043945	1573.907959
3116.733398	1529.735352
3115.421875	1491.300781
3114.111328	1496.734253
3112.799805	1464.039429
3111.488281	1461.852173
3110.175781	1524.454956
3108.864258	1547.024414
3107.551758	1537.202881
3106.238281	1435.970459
3104.925781	1582.310425
3103.612305	1481.108032
3102.298828	1471.306396
3100.985352	1547.143799
3099.671875	1527.819824
3098.357422	1533.232910
3097.042969	1460.665527
3095.727539	1538.347778
3094.413086	1507.633057
3093.097656	1513.045410
3091.782227	1505.152588
3090.466797	1480.161987
3089.150391	1553.966064
3087.833984	1523.277466
3086.517578	1559.064941
3085.201172	1516.995361
3083.883789	1503.415649
3082.566406	1565.756592
3081.249023	1493.349365
3079.931641	1493.061890
3078.613281	1470.012939
3077.294922	1450.765747
3075.976563	1475.135132
3074.658203	1516.556396
3073.338867	1537.113037
3072.019531	1445.858643
3070.700195	1540.310181
3069.379883	1551.378906
3068.060547	1443.129517
3066.740234	1448.531982
3065.418945	1510.726685
3064.098633	1483.936768
3062.777344	1557.454834
3061.456055	1483.364868
3060.134766	1486.862427
3058.812500	1479.010620
3057.491211	1560.036621
3056.167969	1552.173584
3054.845703	1531.081909
3053.523438	1530.786743
3052.200195	1470.027832
3050.876953	1475.411743
3049.552734	1518.568970
3048.229492	1510.722534
3046.905273	1572.736572
3045.580078	1517.690674
3044.255859	1423.032349
3042.930664	1537.861694
3041.605469	1550.771118
3040.280273	1522.178711
3038.955078	1538.857788
3037.628906	1448.057251
3036.302734	1479.825073
3034.976563	1481.424316
3033.649414	1460.410034
3032.322266	1539.257690
3030.995117	1506.938232
3029.667969	1525.480469
3028.339844	1527.068970
3027.012695	1470.296753
3025.684570	1498.246216
3024.355469	1573.231201
3023.027344	1533.416016
3021.698242	1561.336914
3020.369141	1466.997192
3019.039063	1551.331909
3017.708984	1539.752075
3016.378906	1498.101807
3015.048828	1462.105469
3013.718750	1583.954834
3012.387695	1474.690796
3011.056641	1495.066406
3009.725586	1536.090454
3008.393555	1501.998657
3007.062500	1608.705200
3005.730469	1535.200195
3004.397461	1452.341431
3003.065430	1476.449341
3001.732422	1571.823853
3000.399414	1545.265503
2999.065430	1535.592041
2997.732422	1520.298340
2996.398438	1581.854126
2995.064453	1482.233032
2993.729492	1506.302002
2992.395508	1431.084839
2991.060547	1509.465088
2989.724609	1524.152466
2988.389648	1465.823853
2987.053711	1544.151611
2985.717773	1500.812134
2984.381836	1481.812012
2983.044922	1517.067017
2981.708984	1559.789185
2980.372070	1518.349854
2979.034180	1518.056030
2977.697266	1515.893066
2976.359375	1551.106934
2975.021484	1519.043213
2973.682617	1522.485229
2972.344727	1449.349487
2971.005859	1445.334229
2969.666016	1482.394287
2968.327148	1491.440430
2966.987305	1470.622559
2965.647461	1507.656006
2964.307617	1518.557373
2962.967773	1497.746216
2961.626953	1467.618774
2960.286133	1456.147705
2958.944336	1558.391357
2957.603516	1448.128662
2956.261719	1533.563599
2954.919922	1520.225342
2953.577148	1475.226929
2952.235352	1458.180298
2950.892578	1569.614014
2949.549805	1563.725098
2948.206055	1555.977051
2946.863281	1464.493530
2945.519531	1544.210938
2944.174805	1525.310181
2942.831055	1549.191528
2941.486328	1511.702881
2940.141602	1522.564087
2938.796875	1524.127441
2937.451172	1481.090210
2936.105469	1512.388428
2934.759766	1500.949463
2933.414063	1467.227783
2932.067383	1515.222290
2930.720703	1475.941162
2929.374023	1468.230103
2928.027344	1475.368530
2926.679688	1499.203003
2925.332031	1443.259399
2923.984375	1539.425293
2922.635742	1422.301147
2921.287109	1449.835205
2919.938477	1475.504883
2918.589844	1452.979004
2917.240234	1454.549805
2915.890625	1489.466187
2914.541016	1533.630127
2913.191406	1475.924927
2911.840820	1520.074097
2910.490234	1556.801392
2909.139648	1401.034180
2907.789063	1539.542969
2906.437500	1500.392822
2905.085938	1448.309937
2903.734375	1553.440552
2902.381836	1569.779541
2901.029297	1482.589600
2899.676758	1541.445679
2898.324219	1469.078125
2896.970703	1452.164795
2895.617188	1457.424072
2894.263672	1385.114746
2892.910156	1523.330078
2891.555664	1552.571533
2890.201172	1598.413330
2888.846680	1505.833252
2887.491211	1505.540527
2886.135742	1490.490356
2884.780273	1536.308228
2883.424805	1532.321533
2882.068359	1533.867065
2880.712891	1535.411865
2879.355469	1466.926880
2877.999023	1549.554688
2876.641602	1436.881714
2875.284180	1528.692017
2873.926758	1493.407227
2872.569336	1577.806274
2871.210938	1513.073975
2869.852539	1527.502319
2868.494141	1497.764893
2867.134766	1523.228516
2865.775391	1546.842651
2864.416016	1537.346924
2863.056641	1472.697510
2861.696289	1496.307617
2860.335938	1508.881226
2858.975586	1539.824829
2857.614258	1497.270752
2856.253906	1478.611206
2854.892578	1522.397461
2853.530273	1507.412354
2852.168945	1507.118652
2850.806641	1512.331177
2849.444336	1475.336548
2848.082031	1491.560791
2846.718750	1491.270142
2845.355469	1470.806396
2843.992188	1509.024658
2842.627930	1604.057373
2841.264648	1552.424927
2839.900391	1508.142456
2838.535156	1524.337646
2837.170898	1492.900146
2835.805664	1542.057495
2834.440430	1591.195557
2833.075195	1559.763306
2831.708984	1495.396729
2830.342773	1535.364990
2828.976563	1633.865967
2827.609375	1459.765625
2826.243164	1474.112183
2824.875977	1506.738892
2823.507813	1521.070557
2822.140625	1507.978760
2820.772461	1489.409546
2819.404297	1501.908936
2818.035156	1560.072876
2816.666992	1497.669922
2815.297852	1504.681885
2813.928711	1471.525269
2812.558594	1580.759521
2811.189453	1564.025879
2809.819336	1534.526123
2808.448242	1488.619385
2807.078125	1497.448364
2805.707031	1469.802246
2804.335938	1524.211792
2802.963867	1520.268433
2801.592773	1490.811279
2800.220703	1557.939697
2798.848633	1539.417358
2797.475586	1537.295166
2796.102539	1495.109985
2794.729492	1531.232300
2793.356445	1574.622070
2791.982422	1483.313477
2790.609375	1546.711792
2789.234375	1530.035767
2787.860352	1507.909302
2786.485352	1563.990845
2785.110352	1465.500244
2783.735352	1479.756836
2782.360352	1537.628418
2780.984375	1539.144897
2779.608398	1491.606689
2778.231445	1556.707642
2776.855469	1550.954834
2775.478516	1537.941162
2774.101563	1553.978882
2772.723633	1510.114014
2771.346680	1587.849976
2769.968750	1531.295166
2768.589844	1556.391113
2767.211914	1470.846436
2765.833008	1457.865723
2764.454102	1533.722656
2763.075195	1468.170532
2761.695313	1469.695313
2760.315430	1489.337891
2758.935547	1436.513184
2757.554688	1465.210083
2756.174805	1468.544800
2754.793945	1556.968262
2753.412109	1495.120850
2752.031250	1523.783569
2750.649414	1541.578735
2749.267578	1474.343506
2747.884766	1569.913452
2746.502930	1518.973511
2745.120117	1522.291748
2743.736328	1538.261841
2742.353516	1577.719727
2740.969727	1546.693604
2739.585938	1531.938232
2738.202148	1488.289795
2736.817383	1594.541626
2735.432617	1572.563477
2734.047852	1509.076172
2732.662109	1508.780396
2731.277344	1560.812378
2729.891602	1540.661865
2728.504883	1599.881836
2727.119141	1529.237671
2725.732422	1501.892822
2724.345703	1508.808838
2722.958008	1526.535767
2721.571289	1569.482788
2720.183594	1515.127563
2718.794922	1563.463379
2717.407227	1518.134888
2716.018555	1525.039063
2714.629883	1515.739014
2713.241211	1564.036499
2711.851563	1506.146851
2710.461914	1565.221802
2709.072266	1518.146973
2707.681641	1534.034668
2706.291016	1587.674927
2704.900391	1562.195435
2703.509766	1540.320679
2702.119141	1511.266479
2700.727539	1545.105835
2699.334961	1507.080444
2697.943359	1492.417114
2696.550781	1556.764648
2695.158203	1518.759277
2693.765625	1556.153198
2692.372070	1530.724243
2690.979492	1586.042725
2689.584961	1488.865112
2688.191406	1501.126831
2686.796875	1470.348999
2685.402344	1611.687866
2684.007813	1548.636963
2682.613281	1490.986938
2681.217773	1467.401733
2679.822266	1544.141235
2678.425781	1531.300781
2677.030273	1525.627686
2675.633789	1519.956909
2674.237305	1528.607788
2672.839844	1573.046875
2671.442383	1556.634399
2670.044922	1563.483765
2668.647461	1511.308838
2667.249023	1528.893311
2665.850586	1569.712646
2664.452148	1539.016724
2663.053711	1520.842651
2661.654297	1543.771484
2660.254883	1520.244263
2658.855469	1507.442627
2657.455078	1498.217407
2656.054688	1569.337158
2654.654297	1454.787354
2653.252930	1495.548218
2651.852539	1532.724365
2650.451172	1544.910400
2649.048828	1583.845581
2647.647461	1553.218384
2646.245117	1549.346680
2644.842773	1522.303223
2643.439453	1498.834717
2642.037109	1512.794312
2640.633789	1457.269775
2639.229492	1547.821533
2637.826172	1540.393433
2636.421875	1532.968140
2635.017578	1497.064087
2633.613281	1550.161499
2632.208008	1569.429443
2630.802734	1508.632568
2629.397461	1543.909180
2627.991211	1561.388306
2626.584961	1564.636475
2625.178711	1550.106934
2623.772461	1565.796997
2622.365234	1553.049683
2620.958008	1561.626465
2619.550781	1497.373657
2618.142578	1557.458740
2616.735352	1553.600586
2615.326172	1503.588745
2613.917969	1492.643066
2612.508789	1465.731201
2611.099609	1518.666382
2609.690430	1516.593018
2608.281250	1530.481323
2606.871094	1457.482544
2605.460938	1561.786743
2604.049805	1508.306763
2602.639648	1508.009033
2601.228516	1557.318848
2599.817383	1487.928955
2598.405273	1489.406250
2596.993164	1552.855469
2595.581055	1476.426147
2594.168945	1493.834106
2592.755859	1541.318237
2591.342773	1535.706055
2589.929688	1567.242920
2588.516602	1494.422974
2587.102539	1580.769531
2585.688477	1497.368286
2584.273438	1447.582520
2582.859375	1528.585449
2581.444336	1556.552246
2580.028320	1505.017578
2578.613281	1513.550659
2577.197266	1545.035156
2575.781250	1525.310425
2574.365234	1443.816284
2572.948242	1591.766357
2571.531250	1517.348633
2570.114258	1501.172485
2568.696289	1488.530151
2567.278320	1470.602661
2565.860352	1487.941528
2564.442383	1494.697754
2563.023438	1524.360596
2561.604492	1539.916382
2560.185547	1485.003174
2558.766602	1504.082886
2557.346680	1493.220093
2555.926758	1559.824585
2554.505859	1497.909790
2553.084961	1568.006470
2551.665039	1458.608521
2550.243164	1576.181641
2548.822266	1537.176514
2547.400391	1499.945068
2545.978516	1515.470947
2544.555664	1506.382202
2543.133789	1477.965820
2541.710938	1581.338745
2540.287109	1561.701904
2538.864258	1593.006958
2537.440430	1513.671509
2536.016602	1573.063843
2534.591797	1528.869751
2533.167969	1597.010132
2531.743164	1480.889648
2530.317383	1496.384644
2528.892578	1482.056885
2527.466797	1476.502563
2526.041016	1518.287231
2524.614258	1510.974854
2523.187500	1600.054077
2521.760742	1512.128174
2520.333984	1597.668091
2518.906250	1532.546631
2517.479492	1523.487061
2516.050781	1614.225952
2514.623047	1578.897095
2513.194336	1519.080933
2511.765625	1534.527466
2510.336914	1551.717041
2508.907227	1549.660278
2507.477539	1568.588745
2506.047852	1568.277588
2504.617188	1543.494263
2503.186523	1569.403076
2501.755859	1584.817505
2500.325195	1554.804565
2498.893555	1556.242676
2497.461914	1550.695068
2496.030273	1518.960571
2494.597656	1574.517822
2493.166016	1476.471924
2491.732422	1518.056274
2490.299805	1531.711182
2488.866211	1571.523682
2487.432617	1531.103027
2485.999023	1497.672485
2484.564453	1553.156128
2483.130859	1484.877930
2481.695313	1495.037842
2480.260742	1515.646362
2478.825195	1548.439087
2477.389648	1511.561401
2475.954102	1521.707642
2474.517578	1568.405273
2473.081055	1552.430054
2471.644531	1553.861694
2470.207031	1494.403076
2468.770508	1461.058350
2467.332031	1544.240356
2465.894531	1526.546753
2464.456055	1592.299438
2463.017578	1487.704468
2461.579102	1586.453491
2460.140625	1532.282349
2458.701172	1528.503784
2457.261719	1597.663452
2455.821289	1548.730835
2454.380859	1570.989502
2452.940430	1497.783813
2451.500000	1544.336426
2450.058594	1561.377930
2448.617188	1595.757690
2447.175781	1519.136475
2445.734375	1548.309326
2444.291992	1513.331543
2442.849609	1547.693115
2441.407227	1545.652344
2439.963867	1500.301025
2438.520508	1545.037109
2437.077148	1459.873291
2435.632813	1516.719360
2434.188477	1492.182373
2432.744141	1502.269653
2431.299805	1572.916138
2429.854492	1544.922363
2428.409180	1541.155273
2426.963867	1525.284180
2425.517578	1457.549316
2424.071289	1529.862549
2422.625000	1439.685547
2421.177734	1527.525146
2419.730469	1573.866699
2418.283203	1609.825928
2416.835938	1536.973755
2415.387695	1514.221802
2413.939453	1527.729980
2412.491211	1525.699585
2411.041992	1465.000854
2409.593750	1549.244385
2408.143555	1533.411743
2406.693359	1588.290894
2405.244141	1543.145386
2403.794922	1513.532349
2402.343750	1585.617432
2400.892578	1492.250854
2399.441406	1552.251587
2397.990234	1464.096191
2396.539063	1486.191772
2395.085938	1554.766357
2393.634766	1542.406128
2392.181641	1542.098389
2390.728516	1517.700195
2389.275391	1458.903564
2387.822266	1589.337036
2386.369141	1595.898804
2384.914063	1525.085815
2383.460938	1555.723999
2382.005859	1536.507813
2380.550781	1472.622192
2379.095703	1496.380249
2377.640625	1609.447021
2376.183594	1554.171509
2374.728516	1550.427124
2373.271484	1627.365845
2371.814453	1510.333252
2370.357422	1551.214233
2368.900391	1545.757568
2367.443359	1547.163940
2365.986328	1560.574219
2364.527344	1520.827148
2363.068359	1501.666748
2361.611328	1542.499878
2360.152344	1485.644653
2358.693359	1576.147461
2357.232422	1531.298096
2355.773438	1500.166626
2354.312500	1506.715332
2352.851563	1511.549683
2351.392578	1526.650879
2349.931641	1531.479004
2348.468750	1493.534912
2347.007813	1465.868774
2345.546875	1544.241333
2344.083984	1446.474854
2342.621094	1492.340332
2341.158203	1497.169067
2339.695313	1495.160889
2338.232422	1580.282349
2336.769531	1569.717651
2335.304688	1588.188599
2333.839844	1522.989990
2332.375000	1549.997925
2330.910156	1580.408325
2329.445313	1603.981079
2327.980469	1514.946899
2326.515625	1550.462891
2325.048828	1572.321777
2323.582031	1495.282104
2322.115234	1530.780396
2320.648438	1540.699707
2319.181641	1530.167358
2317.714844	1497.491821
2316.246094	1590.872803
2314.779297	1605.880615
2313.310547	1590.235474
2311.841797	1584.810059
2310.373047	1526.627075
2308.904297	1539.933838
2307.433594	1522.612793
2305.964844	1532.512939
2304.494141	1544.109741
2303.023438	1564.202881
2301.552734	1555.389893
2300.082031	1563.575806
2298.611328	1525.879883
2297.138672	1525.573975
2295.667969	1579.620605
2294.195313	1514.773071
2292.722656	1497.490967
2291.250000	1510.770630
2289.777344	1530.833374
2288.302734	1481.318726
2286.830078	1521.736938
2285.355469	1487.508911
2283.880859	1493.993652
2282.408203	1486.911987
2280.931641	1535.771851
2279.457031	1513.431641
2277.982422	1577.516235
2276.505859	1539.929565
2275.029297	1561.639282
2273.554688	1542.698242
2272.078125	1566.091431
2270.599609	1557.313354
2269.123047	1546.846313
2267.646484	1473.777466
2266.167969	1439.647217
2264.689453	1500.247437
2263.210938	1540.530884
2261.732422	1574.035278
2260.253906	1472.297852
2258.775391	1495.662354
2257.294922	1480.154663
2255.814453	1500.129272
2254.333984	1555.564697
2252.853516	1480.951172
2251.373047	1527.926392
2249.892578	1460.100220
2248.412109	1500.310059
2246.929688	1501.695679
2245.447266	1504.767700
2243.964844	1519.644775
2242.482422	1558.123657
2241.000000	1508.917969
2239.517578	1490.072876
2238.033203	1533.590088
2236.548828	1534.966553
2235.066406	1556.557373
2233.582031	1556.244263
2232.095703	1481.839233
2230.611328	1515.212402
2229.126953	1563.721313
2227.640625	1519.651367
2226.154297	1458.773682
2224.667969	1502.217651
2223.181641	1522.097778
2221.695313	1476.389893
2220.208984	1484.498657
2218.720703	1531.263916
2217.234375	1520.872437
2215.746094	1550.809570
2214.257813	1437.947632
2212.769531	1530.030884
2211.279297	1516.289429
2209.791016	1517.662842
2208.300781	1564.354858
2206.812500	1522.085938
2205.322266	1496.612061
2203.832031	1575.151978
2202.341797	1512.780396
2200.849609	1591.285278
2199.359375	1549.052979
2197.867188	1587.291626
2196.375000	1556.807617
2194.882813	1464.343994
2193.390625	1509.276855
2191.898438	1513.996826
2190.404297	1456.760742
2188.912109	1528.453369
2187.417969	1506.386230
2185.923828	1567.999146
2184.429688	1547.605835
2182.935547	1567.366699
2181.439453	1498.481689
2179.945313	1580.111084
2178.449219	1536.327026
2176.953125	1579.473511
2175.458984	1493.930542
2173.960938	1530.385132
2172.464844	1606.914185
2170.968750	1531.437500
2169.470703	1512.761597
2167.972656	1515.794922
2166.474609	1597.271973
2164.976563	1563.575439
2163.478516	1578.275024
2161.980469	1414.489502
2160.480469	1500.923828
2158.982422	1567.315063
2157.482422	1590.336792
2155.982422	1496.681274
2154.482422	1619.688599
2152.980469	1481.082642
2151.480469	1562.401367
2149.978516	1575.408447
2148.476563	1586.745117
2146.974609	1531.490601
2145.472656	1539.502686
2143.970703	1555.831543
2142.468750	1475.661621
2140.964844	1553.539307
2139.462891	1563.203125
2137.958984	1501.369263
2136.455078	1501.065674
2134.949219	1582.198853
2133.445313	1565.262573
2131.941406	1490.187500
2130.435547	1524.766357
2128.929688	1600.846924
2127.423828	1520.828979
2125.917969	1550.400635
2124.412109	1545.108154
2122.906250	1561.388306
2121.398438	1579.320923
2119.890625	1487.777466
2118.382813	1535.566528
2116.875000	1478.885620
2115.367188	1503.450439
2113.859375	1567.779785
2112.349609	1584.031738
2110.841797	1449.526367
2109.332031	1537.015015
2107.822266	1574.790161
2106.312500	1526.459106
2104.800781	1589.049805
2103.291016	1448.059326
2101.779297	1540.423096
2100.269531	1573.196167
2098.757813	1531.529541
2097.246094	1541.140747
2095.732422	1593.732544
2094.220703	1472.746826
2092.707031	1497.237061
2091.195313	1582.850342
2089.681641	1478.459351
2088.167969	1529.358521
2086.654297	1535.653442
2085.138672	1492.418579
2083.625000	1594.451416
2082.109375	1529.768921
2080.593750	1539.358154
2079.078125	1553.892090
2077.562500	1507.398560
2076.046875	1536.772949
2074.531250	1561.189697
2073.013672	1582.300049
2071.496094	1540.781738
2069.978516	1560.239868
2068.460938	1589.573364
2066.943359	1613.954224
2065.425781	1582.342163
2063.906250	1532.634277
2062.386719	1537.260864
2060.869141	1594.543335
2059.349609	1505.377686
2057.828125	1564.288086
2056.308594	1549.169556
2054.789063	1519.259033
2053.267578	1543.608887
2051.746094	1558.087402
2050.224609	1528.193115
2048.703125	1593.598145
2047.181641	1553.853149
2045.658203	1566.675293
2044.136719	1482.620972
2042.613281	1585.737427
2041.089844	1483.659790
2039.566406	1529.303101
2038.042969	1533.913940
2036.517578	1528.681641
2034.994141	1502.132813
2033.468750	1551.014038
2031.943359	1535.945801
2030.417969	1568.411255
2028.892578	1594.309204
2027.367188	1546.476685
2025.839844	1526.507690
2024.314453	1608.074829
2022.787109	1517.700806
2021.259766	1594.325684
2019.732422	1517.083496
2018.203125	1467.688354
2016.675781	1534.461060
2015.146484	1522.700073
2013.619141	1510.943726
2012.089844	1608.729614
2010.560547	1467.830444
2009.029297	1498.582031
2007.500000	1539.124268
2005.968750	1543.711670
2004.439453	1504.199951
2002.908203	1539.817383
2001.376953	1554.197021
1999.843750	1535.926025
1998.312500	1514.398682
1996.781250	1564.668701
1995.248047	1588.818604
1993.714844	1511.842773
1992.181641	1532.732178
1990.648438	1529.159546
1989.115234	1515.808716
1987.580078	1546.461792
1986.044922	1554.292847
1984.511719	1602.843384
1982.976563	1529.230957
1981.441406	1590.792480
1979.904297	1491.165771
1978.369141	1513.647827
1976.832031	1583.310913
1975.294922	1513.030884
1973.759766	1522.481812
1972.220703	1535.181519
1970.683594	1529.990723
1969.146484	1541.057739
1967.607422	1482.234253
1966.068359	1563.178223
1964.531250	1644.089111
1962.992188	1494.321533
1961.451172	1552.478271
1959.912109	1565.150269
1958.371094	1538.858643
1956.832031	1541.790527
1955.291016	1479.816895
1953.750000	1604.430054
1952.208984	1595.992920
1950.666016	1582.694214
1949.125000	1493.200684
1947.582031	1560.975708
1946.039063	1557.415771
1944.496094	1597.605103
1942.953125	1543.820190
1941.410156	1556.461914
1939.865234	1543.189697
1938.322266	1552.588379
1936.777344	1565.220215
1935.232422	1585.938477
1933.687500	1535.457275
1932.142578	1514.114258
1930.595703	1542.916504
1929.050781	1563.621948
1927.503906	1492.169800
1925.957031	1561.366699
1924.410156	1531.959717
1922.863281	1544.571777
1921.314453	1539.410034
1919.767578	1552.015381
1918.218750	1553.312744
1916.669922	1557.838135
1915.121094	1580.115723
1913.572266	1562.042114
1912.021484	1553.655884
1910.472656	1556.564209
1908.921875	1530.442749
1907.371094	1515.618408
1905.820313	1516.920410
1904.269531	1582.689697
1902.718750	1553.361206
1901.166016	1433.826294
1899.615234	1536.618408
1898.062500	1562.070068
1896.509766	1571.410645
1894.957031	1559.820923
1893.402344	1554.673462
1891.849609	1555.964233
1890.294922	1574.950439
1888.740234	1581.061523
1887.185547	1511.590576
1885.630859	1546.651367
1884.076172	1525.438232
1882.519531	1587.802124
1880.964844	1528.026855
1879.408203	1534.139526
1877.851563	1540.249634
1876.294922	1512.635986
1874.736328	1539.618530
1873.179688	1555.354126
1871.621094	1505.287109
1870.064453	1567.552368
1868.505859	1547.981567
1866.947266	1520.399658
1865.386719	1573.002441
1863.828125	1638.408691
1862.267578	1525.875977
1860.708984	1539.985352
1859.148438	1506.024414
1857.587891	1611.435913
1856.025391	1556.654541
1854.464844	1575.549316
1852.902344	1495.184082
1851.341797	1578.103882
1849.779297	1569.779297
1848.216797	1526.261108
1846.652344	1546.741699
1845.089844	1580.007446
1843.525391	1598.869629
1841.962891	1588.950195
1840.398438	1615.793701
1838.833984	1551.546631
1837.267578	1532.057373
1835.703125	1555.701294
1834.136719	1574.544678
1832.572266	1526.324097
1831.005859	1551.550537
1829.439453	1573.574707
1827.873047	1554.104492
1826.304688	1571.333130
1824.738281	1537.516724
1823.169922	1500.524902
1821.601563	1551.233521
1820.033203	1619.454712
1818.464844	1544.221558
1816.896484	1569.396973
1815.326172	1530.843140
1813.755859	1586.270874
1812.185547	1541.359985
1810.615234	1579.250854
1809.044922	1543.909668
1807.474609	1521.313599
1805.902344	1540.092773
1804.332031	1535.004028
1802.759766	1545.820801
1801.187500	1516.882446
1799.615234	1576.978882
1798.041016	1589.369507
1796.468750	1569.973999
1794.894531	1576.005859
1793.320313	1515.322754
1791.746094	1621.411133
1790.171875	1519.462402
1788.597656	1538.198608
1787.021484	1539.469116
1785.445313	1608.969360
1783.871094	1543.594604
1782.294922	1530.588013
1780.716797	1520.758179
1779.140625	1534.714111
1777.564453	1570.855957
1775.986328	1518.234131
1774.408203	1571.793457
1772.830078	1580.974487
1771.251953	1534.718140
1769.673828	1496.398193
1768.093750	1591.079834
1766.513672	1600.249023
1764.935547	1506.551025
1763.355469	1495.165283
1761.773438	1589.768677
1760.193359	1636.887085
1758.613281	1622.318848
1757.031250	1574.557983
1755.449219	1498.366699
1753.867188	1613.414551
1752.285156	1502.488525
1750.701172	1568.520996
1749.119141	1569.776855
1747.535156	1569.453125
1745.951172	1490.199341
1744.367188	1507.252930
1742.783203	1607.930786
1741.199219	1583.934692
1739.613281	1596.226318
1738.029297	1559.626587
1736.443359	1527.771729
1734.857422	1585.780396
1733.271484	1495.621338
1731.683594	1588.277222
1730.097656	1611.579590
1728.509766	1570.296265
1726.921875	1604.615479
1725.333984	1590.114746
1723.746094	1540.991089
1722.158203	1542.246582
1720.568359	1474.271973
1718.978516	1566.778687
1717.390625	1525.563721
1715.800781	1504.807007
1714.208984	1579.956787
1712.619141	1526.190186
1711.027344	1623.304443
1709.437500	1610.400146
1707.845703	1575.509766
1706.253906	1572.043213
1704.662109	1541.885498
1703.068359	1632.616455
1701.476563	1572.638062
1699.882813	1584.866333
1698.289063	1586.107544
1696.695313	1562.251587
1695.101563	1486.654907
1693.505859	1564.741333
1691.912109	1522.093750
1690.316406	1576.631958
1688.720703	1591.974854
1687.125000	1577.546265
1685.529297	1503.605835
1683.933594	1614.475952
1682.335938	1543.689453
1680.738281	1596.589722
1679.140625	1580.609741
1677.542969	1578.717896
1675.945313	1628.449097
1674.347656	1654.699829
1672.748047	1513.627441
1671.148438	1605.551147
1669.548828	1578.647461
1667.949219	1628.326782
1666.349609	1556.120483
1664.748047	1580.791016
1663.148438	1564.846313
1661.546875	1577.013428
1659.945313	1590.736328
1658.343750	1620.061157
1656.742188	1496.451538
1655.138672	1577.266968
1653.537109	1597.217285
1651.933594	1498.640381
1650.330078	1552.899536
1648.726563	1602.459595
1647.121094	1625.504761
1645.517578	1600.237183
1643.912109	1554.727905
1642.306641	1630.724121
1640.701172	1597.684814
1639.095703	1616.035889
1637.490234	1540.986328
1635.884766	1610.697021
1634.277344	1566.797485
1632.669922	1599.139771
1631.062500	1572.368530
1629.455078	1570.487427
1627.845703	1610.581543
1626.238281	1557.401367
1624.628906	1522.890747
1623.019531	1618.900879
1621.410156	1644.971436
1619.800781	1598.039795
1618.191406	1636.525146
1616.580078	1572.538696
1614.968750	1649.813965
1613.359375	1556.368530
1611.746094	1568.456421
1610.134766	1551.068970
1608.523438	1591.066284
1606.910156	1637.248535
1605.298828	1548.552490
1603.685547	1645.867065
1602.070313	1630.030518
1600.457031	1601.807373
1598.843750	1556.558838
1597.228516	1649.144897
1595.613281	1642.609497
1593.998047	1640.720215
1592.382813	1680.614868
1590.767578	1641.585327
1589.152344	1630.415894
1587.535156	1630.076904
1585.917969	1597.266846
1584.300781	1607.756226
1582.683594	1615.149780
1581.066406	1551.457520
1579.447266	1642.287109
1577.828125	1544.633667
1576.210938	1590.641602
1574.591797	1647.438354
1572.970703	1608.503784
1571.351563	1648.296143
1569.730469	1630.979858
1568.111328	1712.403809
1566.490234	1547.012207
1564.869141	1589.868042
1563.248047	1557.160400
1561.625000	1603.078857
1560.003906	1599.662964
1558.380859	1599.329834
1556.757813	1549.702026
1555.134766	1566.320923
1553.511719	1630.666992
1551.886719	1565.668457
1550.263672	1588.429932
1548.638672	1521.928223
1547.013672	1606.230591
1545.388672	1535.138062
1543.761719	1627.091797
1542.136719	1599.076416
1540.509766	1586.445068
1538.882813	1595.336060
1537.255859	1596.540039
1535.628906	1586.989502
1534.001953	1575.906860
1532.373047	1589.399170
1530.746094	1635.127686
1529.117188	1531.940918
1527.488281	1637.515137
1525.859375	1634.104858
1524.228516	1601.548950
1522.599609	1605.816040
1520.968750	1556.411865
1519.337891	1556.087158
1517.707031	1558.828003
1516.076172	1609.073608
1514.443359	1585.755859
1512.810547	1665.079102
1511.179688	1595.814453
1509.546875	1561.795532
1507.914063	1611.987671
1506.279297	1596.345825
1504.646484	1631.207397
1503.011719	1580.380249
1501.376953	1567.813721
1499.742188	1584.307983
1498.107422	1559.514160
1496.472656	1647.848145
1494.835938	1600.126709
1493.201172	1489.778076
1491.564453	1575.015625
1489.927734	1591.487305
1488.289063	1620.168091
1486.652344	1575.555176
1485.013672	1619.490967
1483.376953	1603.891846
1481.738281	1629.494263
1480.099609	1584.916260
1478.458984	1573.909180
1476.820313	1569.005737
1475.179688	1580.873413
1473.539063	1571.397949
1471.898438	1568.021606
1470.257813	1602.734497
1468.617188	1565.842529
1466.974609	1577.697998
1465.333984	1619.999512
1463.691406	1634.882935
1462.048828	1578.229858
1460.406250	1583.985962
1458.761719	1615.601440
1457.119141	1587.885986
1455.474609	1582.991699
1453.830078	1552.253784
1452.185547	1624.889282
1450.539063	1571.359863
1448.894531	1625.728271
1447.248047	1593.487671
1445.603516	1539.998291
1443.957031	1548.786255
1442.308594	1583.378174
1440.662109	1596.706543
1439.015625	1628.238770
1437.367188	1637.000610
1435.718750	1632.107056
1434.070313	1633.281616
1432.421875	1604.131714
1430.771484	1587.120850
1429.123047	1617.099365
1427.472656	1645.550049
1425.822266	1580.063477
1424.171875	1629.714111
1422.521484	1580.915283
1420.869141	1577.555908
1419.218750	1575.711426
1417.566406	1567.814331
1415.914063	1552.355347
1414.261719	1600.436157
1412.607422	1557.753662
1410.955078	1587.668213
1409.300781	1625.128784
1407.646484	1603.627808
1405.992188	1630.491333
1404.337891	1619.573608
1402.683594	1623.765137
1401.027344	1581.139771
1399.371094	1635.162354
1397.714844	1577.457031
1396.058594	1635.985107
1394.402344	1573.776978
1392.744141	1593.057983
1391.087891	1606.297852
1389.429688	1595.404907
1387.771484	1643.313965
1386.113281	1597.749390
1384.453125	1592.892822
1382.794922	1562.424683
1381.134766	1634.401733
1379.474609	1582.852783
1377.814453	1573.485840
1376.154297	1543.046997
1374.492188	1645.069092
1372.832031	1573.998779
1371.169922	1575.172363
1369.507813	1654.561035
1367.845703	1591.052246
1366.181641	1580.193237
1364.519531	1510.713867
1362.855469	1546.465332
1361.191406	1562.668335
1359.527344	1566.846436
1357.863281	1560.509033
1356.199219	1549.669434
1354.533203	1597.385132
1352.867188	1619.563843
1351.201172	1554.694214
1349.535156	1540.863892
1347.869141	1578.040649
1346.201172	1507.221558
1344.535156	1580.375244
1342.867188	1539.567139
1341.199219	1552.731934
1339.531250	1631.823486
1337.861328	1583.539307
1336.193359	1569.725342
1334.523438	1545.434570
1332.853516	1569.064331
1331.183594	1588.193237
1329.511719	1604.321045
1327.841797	1544.132935
1326.169922	1591.677612
1324.500000	1624.245972
1322.828125	1591.006958
1321.154297	1577.216797
1319.482422	1564.927002
1317.808594	1545.170410
1316.136719	1574.725708
1314.462891	1631.155518
1312.789063	1580.035522
1311.113281	1614.043701
1309.439453	1585.340454
1307.763672	1553.664185
1306.087891	1586.164063
1304.412109	1576.878418
1302.736328	1555.664429
1301.060547	1594.107910
1299.382813	1629.553223
1297.707031	1609.831787
1296.029297	1594.589478
1294.351563	1571.903564
1292.671875	1593.916504
1290.994141	1635.281250
1289.314453	1620.046021
1287.636719	1540.802979
1285.957031	1616.385376
1284.275391	1598.187256
1282.595703	1629.092773
1280.914063	1640.648315
1279.234375	1597.175171
1277.552734	1592.377319
1275.871094	1563.797607
1274.189453	1559.008667
1272.505859	1582.453369
1270.822266	1596.974609
1269.140625	1546.138916
1267.457031	1600.754639
1265.771484	1564.785522
1264.087891	1548.127563
1262.404297	1601.223999
1260.718750	1618.689575
1259.033203	1584.230103
1257.347656	1551.268188
1255.662109	1577.629395
1253.974609	1538.752930
1252.287109	1539.909668
1250.601563	1557.365479
1248.914063	1644.443481
1247.224609	1626.321655
1245.537109	1569.705200
1243.849609	1563.451050
1242.160156	1601.606201
1240.470703	1635.305298
1238.781250	1563.938477
1237.091797	1499.998047
1235.400391	1592.856079
1233.708984	1549.637695
1232.019531	1593.660156
1230.328125	1580.020508
1228.634766	1485.111694
1226.943359	1563.100098
1225.250000	1518.456177
1223.558594	1578.682739
1221.865234	1531.101318
1220.171875	1508.634644
1218.476563	1549.638794
1216.783203	1620.136230
1215.087891	1646.346924
1213.392578	1581.102173
1211.697266	1594.038574
1210.001953	1494.923706
1208.306641	1496.080933
1206.609375	1597.446289
1204.912109	1577.954224
1203.214844	1592.350098
1201.517578	1534.576294
1199.820313	1497.440796
1198.121094	1588.393311
1196.423828	1535.072266
1194.724609	1575.947998
1193.025391	1521.180786
1191.326172	1610.579956
1189.625000	1566.122192
1187.923828	1627.539429
1186.224609	1572.807251
1184.523438	1497.523926
1182.822266	1530.999878
1181.119141	1520.392090
1179.417969	1631.688110
1177.714844	1588.759521
1176.011719	1567.869629
1174.308594	1522.037109
1172.605469	1553.997192
1170.900391	1512.588257
1169.197266	1551.870605
1167.492188	1588.203247
1165.787109	1574.670410
1164.080078	1537.689331
1162.375000	1579.863770
1160.667969	1600.041504
1158.962891	1533.779785
1157.255859	1568.604736
1155.548828	1505.306274
1153.839844	1575.258179
1152.132813	1569.068604
1150.423828	1554.101440
1148.714844	1523.046875
1147.005859	1525.648560
1145.296875	1550.185669
1143.585938	1603.954834
1141.876953	1600.690186
1140.166016	1505.351929
1138.455078	1569.324341
1136.744141	1478.415771
1135.033203	1554.051147
1133.320313	1499.690796
1131.607422	1535.870605
1129.894531	1531.164917
1128.181641	1525.001831
1126.468750	1505.710083
1124.753906	1584.160034
1123.041016	1569.238892
1121.326172	1530.994507
1119.611328	1524.837524
1117.896484	1534.715210
1116.179688	1566.446045
1114.464844	1490.356323
1112.748047	1539.561279
1111.031250	1511.565063
1109.314453	1514.155029
1107.595703	1513.832520
1105.878906	1586.275024
1104.160156	1497.182861
1102.441406	1493.954468
1100.722656	1550.356567
1099.003906	1490.409790
1097.283203	1479.916016
1095.562500	1478.147095
1093.843750	1534.504150
1092.123047	1561.780640
1090.400391	1509.157349
1088.679688	1543.688354
1086.957031	1505.610107
1085.236328	1541.578613
1083.513672	1551.408813
1081.789063	1468.373169
1080.066406	1478.214478
1078.341797	1566.370117
1076.619141	1509.484741
1074.894531	1470.020142
1073.169922	1500.144165
1071.443359	1501.273193
1069.718750	1477.772095
1067.992188	1474.559814
1066.265625	1468.452393
1064.539063	1460.899658
1062.812500	1469.273071
1061.085938	1609.342773
1059.357422	1462.858032
1057.628906	1466.885620
1055.900391	1496.945190
1054.171875	1502.409546
1052.443359	1476.066040
1050.712891	1471.414551
1048.982422	1534.684082
1047.251953	1504.015869
1045.521484	1471.916260
1043.791016	1516.370728
1042.058594	1479.950317
1040.328125	1498.400146
1038.595703	1498.079956
1036.863281	1464.572388
1035.128906	1480.128174
1033.396484	1562.023560
1031.662109	1480.937378
1029.927734	1467.645508
1028.193359	1517.780273
1026.458984	1492.957275
1024.724609	1495.519531
1022.988281	1503.842407
1021.251953	1481.918457
1019.515625	1447.045166
1017.779297	1449.614624
1016.042969	1502.556030
1014.304688	1451.872192
1012.568359	1486.088257
1010.830078	1468.510498
1009.089844	1498.394165
1007.351563	1476.508179
1005.613281	1527.937866
1003.873047	1473.001831
1002.132813	1574.697021
1000.392578	1450.824219
998.652344	1477.800415
996.910156	1454.510498
995.169922	1438.408081
993.427734	1527.084106
991.685547	1459.315674
989.941406	1483.391479
988.199219	1510.325562
986.455078	1479.887939
984.712891	1445.162109
982.968750	1464.919800
981.222656	1478.936646
979.478516	1474.321289
977.734375	1481.167603
975.988281	1447.910522
974.242188	1479.100708
972.496094	1412.932617
970.748047	1441.254395
969.001953	1508.198853
967.253906	1432.052490
965.505859	1450.339355
963.757813	1478.628418
962.009766	1433.990479
960.259766	1506.581909
958.511719	1494.825928
956.761719	1465.929565
955.011719	1421.332275
953.259766	1438.165283
951.509766	1530.667603
949.757813	1466.098999
948.007813	1397.276367
946.255859	1414.099609
944.501953	1443.755371
942.750000	1409.213379
940.996094	1404.632690
939.244141	1420.013916
937.490234	1461.045776
935.734375	1328.197266
933.980469	1467.542114
932.224609	1391.728760
930.470703	1391.429688
928.714844	1448.085938
926.958984	1348.124512
925.201172	1421.844727
923.445313	1459.959106
921.687500	1372.863281
919.929688	1445.108032
918.171875	1379.383301
916.414063	1441.643188
914.654297	1422.854492
912.894531	1449.549927
911.136719	1443.554932
909.375000	1370.798096
907.615234	1379.024536
905.855469	1436.943970
904.093750	1415.340820
902.332031	1440.583496
900.570313	1372.162109
898.808594	1363.354736
897.044922	1494.970459
895.283203	1391.129395
893.519531	1390.829956
891.755859	1373.520996
889.992188	1316.538940
888.226563	1350.259888
886.462891	1345.719482
884.697266	1358.175903
882.931641	1366.379028
881.166016	1395.812988
879.398438	1411.080933
877.632813	1365.496216
875.865234	1410.472900
874.097656	1328.133179
872.330078	1344.816284
870.562500	1371.388672
868.792969	1348.477173
867.023438	1363.731567
865.253906	1356.373169
863.484375	1375.856934
861.714844	1289.411255
859.943359	1332.904541
858.173828	1335.440430
856.402344	1299.868286
854.628906	1319.342773
852.857422	1310.593628
851.085938	1296.206421
849.312500	1352.332764
847.539063	1323.844116
845.765625	1371.482788
843.992188	1324.682129
842.216797	1322.987305
840.441406	1283.260132
838.667969	1329.457886
836.892578	1295.378418
835.115234	1289.467896
833.339844	1320.152588
831.562500	1287.504028
829.785156	1268.937500
828.007813	1230.687988
826.230469	1250.109009
824.451172	1294.827515
822.673828	1347.960205
820.894531	1236.651489
819.115234	1301.013428
817.335938	1251.568604
815.554688	1197.931885
813.775391	1300.170166
811.994141	1283.044067
810.212891	1258.907837
808.431641	1314.762085
806.648438	1258.363525
804.867188	1256.688965
803.083984	1233.981201
801.300781	1268.763062
799.515625	1208.217896
797.732422	1265.411621
795.947266	1241.320313
794.164063	1284.474609
792.378906	1267.391479
790.591797	1268.517456
788.806641	1264.043457
787.019531	1239.978027
785.234375	1232.713623
783.447266	1245.037109
781.658203	1264.348145
779.871094	1250.091309
778.082031	1163.144165
776.294922	1207.618896
774.505859	1261.856201
772.716797	1253.200317
770.925781	1248.738525
769.136719	1273.605103
767.345703	1250.990112
765.554688	1217.217651
763.763672	1183.459839
761.970703	1248.781860
760.179688	1237.351440
758.386719	1200.821533
756.593750	1264.702881
754.800781	1177.995850
753.005859	1247.429321
751.212891	1185.846069
749.417969	1136.828003
747.623047	1129.617188
745.828125	1279.769531
744.033203	1179.248901
742.236328	1185.953003
740.439453	1184.304077
738.642578	1147.871826
736.845703	1171.270874
735.048828	1158.499878
733.250000	1165.200806
731.451172	1145.485840
729.652344	1205.000854
727.853516	1195.012573
726.054688	1183.639160
724.253906	1109.768066
722.455078	1083.142944
720.654297	1163.431763
718.853516	1136.806274
717.050781	1158.763306
715.250000	1187.647949
713.447266	1155.485840
711.644531	1110.856079
709.841797	1125.866699
708.037109	1164.436646
706.234375	1173.885132
704.429688	1091.877808
702.625000	1123.503174
700.820313	1116.333862
699.013672	1197.790283
697.208984	1128.308594
695.402344	1119.758545
693.595703	1062.778320
691.789063	1138.641113
689.982422	1098.280029
688.173828	1070.382690
686.365234	1140.663696
684.556641	1093.416748
682.748047	1138.785522
680.939453	1141.301270
679.128906	1134.145874
677.318359	1109.039063
675.507813	1094.989502
673.697266	1071.282471
671.886719	1050.346069
670.074219	1084.615356
668.261719	1102.314331
666.449219	1104.833008
664.636719	1077.012207
662.824219	1075.398926
661.009766	1047.596436
659.195313	1065.283813
657.380859	1069.185303
655.566406	1048.289673
653.751953	1048.061401
651.935547	1058.848389
650.119141	1037.968506
648.302734	1069.397583
646.486328	1126.957275
644.669922	1023.533020
642.851563	1037.064087
641.033203	1087.717407
639.214844	1064.108398
637.396484	1077.621582
635.578125	1010.050049
633.757813	1029.064697
631.937500	1030.213867
630.117188	1001.149536
628.296875	1028.391602
626.474609	1022.676453
624.654297	984.025574
622.832031	1003.020630
621.009766	1034.353760
619.185547	1028.641968
617.363281	1031.159912
615.539063	1036.418579
613.714844	933.395569
611.890625	982.523560
610.066406	1011.079651
608.242188	1010.858948
606.416016	995.574524
604.589844	992.618896
602.763672	1003.352783
600.937500	1007.239319
599.109375	1000.178162
597.281250	947.978210
595.453125	1018.888184
593.625000	957.135437
591.796875	985.634155
589.966797	1027.787720
588.138672	1039.861084
586.308594	987.720459
584.478516	953.358459
582.646484	927.204773
580.816406	1018.473572
578.984375	974.572571
577.152344	944.337219
575.320313	946.859436
573.486328	972.569397
571.654297	906.896545
569.820313	938.057678
567.986328	988.289307
566.152344	915.841553
564.316406	940.167297
562.482422	923.614441
560.646484	930.222168
558.810547	980.400330
556.974609	917.562805
555.136719	951.388733
553.300781	941.655090
551.462891	916.960388
549.625000	938.522522
547.785156	960.075073
545.947266	992.494812
544.107422	891.690430
542.267578	941.777649
540.427734	862.767456
538.587891	912.838928
536.748047	956.097961
534.906250	924.659180
533.064453	920.384094
531.222656	960.898499
529.378906	943.048157
527.537109	896.716858
525.693359	897.876587
523.849609	894.967773
522.005859	902.905884
520.162109	878.310425
518.316406	867.276855
516.470703	853.538452
514.625000	872.314636
512.779297	872.123352
510.933594	862.454529
509.085938	893.398926
507.238281	925.683044
505.390625	837.532288
503.542969	853.581482
501.695313	891.262695
499.845703	899.179993
497.996094	898.982605
496.146484	881.215088
494.296875	843.186340
492.447266	841.650269
490.595703	898.193481
488.744141	833.178467
486.892578	878.898071
485.041016	909.749878
483.187500	817.785400
481.333984	852.684570
479.480469	863.288330
477.626953	836.126831
475.773438	846.729492
473.917969	847.891479
472.064453	834.228088
470.208984	785.538086
468.351563	798.836548
466.496094	814.822754
464.638672	846.960083
462.783203	827.926758
460.925781	804.863953
459.066406	756.244263
457.208984	815.272705
455.349609	848.719360
453.490234	818.948303
451.630859	767.679199
449.771484	775.575195
447.912109	796.906250
446.050781	814.197205
444.189453	805.958435
442.328125	801.752197
440.466797	790.834351
438.603516	790.660278
436.740234	810.617432
434.876953	763.476440
433.013672	811.602051
431.150391	732.292786
429.285156	776.381226
427.419922	733.310913
425.554688	817.588928
423.689453	805.348694
421.824219	764.979675
419.957031	786.241943
418.089844	811.512146
416.222656	811.333374
414.355469	800.446228
412.488281	785.549133
410.619141	767.982666
408.750000	747.748596
406.880859	766.306763
405.011719	752.767151
403.140625	777.999817
401.269531	741.743408
399.398438	753.605469
397.527344	764.126343
395.656250	735.910400
393.783203	718.389221
391.910156	754.275757
390.037109	739.427612
388.164063	764.618286
386.291016	755.110718
384.416016	738.938171
382.541016	750.776855
380.666016	722.613220
378.791016	722.453674
376.914063	758.275635
375.039063	678.167114
373.162109	780.585815
371.285156	777.749878
369.406250	714.999084
367.529297	722.828186
365.650391	725.330261
363.771484	739.806519
361.892578	694.413086
360.011719	722.189636
358.132813	755.272705
356.251953	717.882263
354.371094	727.027405
352.490234	665.740845
350.607422	708.106628
348.724609	757.094849
346.841797	703.809753
344.958984	727.551819
343.076172	723.408875
341.193359	715.286499
339.308594	762.891968
337.423828	709.664185
335.539063	729.399963
333.652344	676.203064
331.767578	709.193298
329.880859	705.060486
327.994141	727.429565
326.107422	700.774292
324.218750	655.588867
322.330078	680.602173
320.443359	698.985229
318.552734	641.918152
316.664063	746.312683
314.775391	668.093018
312.884766	698.366333
310.994141	678.376099
309.103516	702.023254
307.210938	683.362732
305.320313	685.854309
303.427734	690.987183
301.535156	636.676880
299.642578	672.192383
297.748047	682.605957
295.853516	645.493896
293.960938	662.507385
292.064453	638.610535
290.169922	654.298767
288.275391	656.791382
286.378906	655.327209
284.482422	641.999146
282.585938	645.810669
280.687500	617.995972
278.791016	623.128479
276.892578	666.454712
274.994141	612.317566
273.095703	650.360779
271.195313	625.208130
269.294922	615.857788
267.396484	630.193176
265.494141	630.053345
263.593750	602.297241
261.691406	591.645386
259.791016	607.287720
257.888672	618.980530
255.986328	647.748657
254.082031	612.137634
252.177734	629.074646
250.275391	606.613647
248.371094	631.420654
246.464844	582.720337
244.560547	654.758667
242.654297	598.203613
240.748047	622.990295
238.841797	632.030701
236.935547	646.310974
235.027344	567.526245
233.119141	580.504028
231.210938	576.444641
229.302734	564.528198
227.392578	589.283508
225.484375	608.790833
223.574219	600.801819
221.664063	618.989197
219.751953	550.817139
217.841797	531.073608
215.929688	561.034241
214.017578	550.449524
212.105469	572.549255
210.193359	564.580444
208.279297	557.921753
206.365234	585.230225
204.451172	530.246826
202.537109	578.440979
200.621094	571.784973
198.705078	578.183411
196.789063	585.883850
194.873047	554.443604
192.957031	516.495911
191.039063	533.332764
189.123047	518.873230
187.203125	538.308777
185.285156	569.463684
183.367188	493.772644
181.447266	515.805786
179.527344	582.105530
177.607422	524.689575
175.687500	515.460938
173.765625	473.701874
171.843750	551.661560
169.921875	473.490662
168.000000	488.991180
166.078125	495.383209
164.154297	540.770203
162.230469	489.963684
160.306641	484.656982
158.382813	478.053558
156.457031	494.830872
154.531250	524.585449
152.605469	525.766602
150.679688	503.584930
148.753906	509.960571
146.826172	507.252106
144.898438	526.594299
142.970703	517.399536
141.042969	480.983368
139.113281	553.460999
137.183594	509.277740
135.253906	485.843506
133.324219	490.916138
131.394531	498.576508
129.462891	460.918396
127.531250	453.048828
125.599609	429.653168
123.667969	463.197144
121.734375	434.635345
119.802734	398.326691
117.869141	376.256989
115.935547	391.685150
114.000000	355.410339
112.066406	354.038757
110.130859	351.375946
108.195313	375.836517
106.257813	344.762543
104.322266	333.066803
102.384766	352.352325
100.447266	344.531219
