#Wave		#Intensity
3501.405273	5909.909180
3500.167969	5821.038574
3498.929688	5965.339844
3497.691406	5780.484863
3496.453125	5876.291504
3495.213867	5840.874023
3493.975586	5936.632813
3492.736328	6012.179688
3491.497070	5877.916504
3490.256836	5733.620117
3489.017578	5845.456543
3487.777344	5929.026855
3486.537109	5891.628906
3485.296875	6071.889160
3484.055664	5875.304688
3482.814453	5809.734375
3481.573242	5959.695801
3480.332031	5801.503418
3479.089844	5989.663086
3477.848633	5906.002441
3476.606445	6041.744141
3475.363281	5994.324707
3474.121094	5898.639160
3472.877930	5929.709961
3471.634766	5912.503418
3470.391602	5929.484375
3469.147461	5944.448730
3467.904297	5993.575195
3466.660156	5934.167969
3465.416016	6007.387695
3464.170898	5941.973633
3462.926758	6021.188477
3461.681641	5929.691406
3460.436523	5876.374023
3459.190430	5991.686523
3457.945313	5968.479980
3456.699219	5909.165039
3455.453125	6006.350098
3454.206055	6053.354492
3452.959961	5897.797852
3451.712891	5902.699707
3450.465820	6009.834473
3449.218750	6044.776367
3447.970703	5871.303223
3446.722656	6040.490234
3445.474609	5979.256348
3444.226563	5835.934082
3442.978516	5892.899902
3441.729492	6017.910645
3440.480469	5892.675781
3439.231445	5947.596680
3437.981445	5872.442383
3436.731445	6003.362793
3435.481445	5934.226074
3434.231445	5969.099121
3432.981445	5963.972656
3431.730469	5902.877441
3430.479492	5953.724609
3429.228516	5990.564941
3427.977539	6039.377930
3426.725586	5920.387695
3425.473633	5903.292480
3424.221680	5836.286133
3422.969727	5913.038086
3421.716797	5913.916016
3420.463867	5952.708984
3419.210938	5787.979492
3417.958008	5894.603516
3416.704102	5847.617676
3415.450195	5854.487793
3414.196289	5897.240723
3412.942383	5812.407227
3411.687500	5669.811523
3410.433594	5786.298340
3409.178711	5821.062012
3407.922852	5770.166504
3406.667969	5850.721680
3405.412109	5726.171387
3404.156250	5876.376953
3402.900391	5835.459473
3401.643555	5790.577148
3400.386719	5735.764648
3399.129883	5800.320313
3397.873047	5731.604492
3396.616211	5587.355469
3395.358398	5695.638184
3394.100586	5738.287598
3392.842773	5574.246094
3391.583984	5509.610352
3390.326172	5667.487305
3389.067383	5551.218750
3387.808594	5613.710938
3386.548828	5549.115723
3385.289063	5502.409668
3384.030273	5592.659668
3382.769531	5500.325195
3381.509766	5499.282715
3380.249023	5510.142090
3378.988281	5546.776855
3377.727539	5515.984863
3376.466797	5588.286621
3375.205078	5494.074219
3373.943359	5461.327148
3372.681641	5531.616211
3371.419922	5431.524414
3370.157227	5555.265625
3368.894531	5482.928223
3367.631836	5489.807617
3366.369141	5478.869629
3365.105469	5341.280762
3363.842773	5433.262695
3362.578125	5357.059082
3361.314453	5543.939941
3360.050781	5400.509277
3358.786133	5395.530762
3357.521484	5200.787109
3356.255859	5484.395996
3354.991211	5273.901367
3353.725586	5251.168945
3352.459961	5307.454102
3351.194336	5304.472168
3349.927734	5216.587891
3348.661133	5302.458984
3347.394531	5295.531250
3346.127930	5101.136719
3344.860352	5329.034668
3343.593750	5235.310059
3342.326172	5218.538086
3341.057617	5258.956543
3339.790039	5131.782715
3338.521484	5371.284180
3337.252930	5151.511719
3335.984375	5063.837402
3334.714844	5167.285156
3333.446289	5306.146484
3332.176758	5100.337402
3330.906250	5176.154297
3329.636719	5320.839355
3328.366211	5144.665527
3327.095703	5124.010742
3325.825195	5038.439941
3324.554688	5129.931152
3323.283203	5199.754883
3322.011719	4976.580078
3320.740234	5046.405762
3319.467773	4953.067871
3318.195313	5154.534668
3316.922852	5131.942383
3315.650391	5154.539551
3314.377930	5139.811035
3313.104492	4985.670410
3311.831055	4978.832520
3310.557617	5077.992676
3309.283203	5047.589355
3308.009766	5028.969727
3306.735352	4988.777832
3305.460938	4999.597168
3304.185547	5139.839844
3302.911133	5015.340820
3301.635742	5008.505859
3300.359375	4978.154297
3299.083984	4953.692871
3297.807617	5019.361328
3296.531250	5014.488281
3295.254883	4966.532227
3293.978516	5036.076172
3292.701172	4900.038574
3291.423828	4854.087891
3290.146484	5001.890137
3288.869141	4961.806641
3287.590820	4896.308105
3286.312500	4877.773438
3285.034180	4831.869629
3283.754883	4942.387695
3282.476563	4874.987305
3281.197266	4836.926758
3279.917969	4957.149414
3278.637695	4852.666016
3277.357422	4992.371582
3276.078125	4932.835938
3274.796875	4926.038574
3273.516602	4733.795898
3272.235352	4734.845703
3270.954102	4765.164551
3269.672852	4881.314453
3268.391602	4794.558105
3267.109375	4746.838867
3265.827148	4782.980957
3264.544922	4729.433105
3263.262695	4751.920898
3261.979492	4784.143555
3260.696289	4678.019531
3259.413086	4790.110840
3258.128906	4867.102051
3256.845703	4737.655762
3255.561523	4822.414551
3254.277344	4881.836426
3252.992188	4694.076172
3251.707031	4718.475586
3250.422852	4738.974609
3249.136719	4773.081055
3247.851563	4820.786621
3246.565430	4722.652832
3245.279297	4702.312500
3243.993164	4716.963379
3242.707031	4690.801758
3241.419922	4565.567871
3240.132813	4791.959961
3238.845703	4587.129395
3237.557617	4718.288086
3236.270508	4626.145508
3234.982422	4563.152344
3233.694336	4626.319824
3232.405273	4611.854980
3231.116211	4768.100098
3229.827148	4697.369141
3228.538086	4682.898438
3227.249023	4602.516113
3225.958984	4551.240234
3224.668945	4577.502441
3223.378906	4628.943359
3222.087891	4622.247070
3220.797852	4510.962402
3219.506836	4508.164063
3218.215820	4356.284668
3216.923828	4601.292969
3215.631836	4476.548828
3214.339844	4452.473145
3213.047852	4563.831543
3211.755859	4530.076172
3210.462891	4525.342285
3209.169922	4468.404297
3207.876953	4430.819824
3206.583008	4445.435059
3205.289063	4421.395508
3203.995117	4352.928223
3202.701172	4456.406738
3201.407227	4521.219238
3200.112305	4454.702148
3198.817383	4407.516113
3197.521484	4358.417480
3196.226563	4425.127930
3194.930664	4291.147949
3193.634766	4436.938477
3192.338867	4455.376953
3191.041992	4425.598633
3189.745117	4272.439941
3188.448242	4335.233887
3187.151367	4284.295410
3185.854492	4366.331543
3184.556641	4217.153320
3183.258789	4185.527344
3181.959961	4171.245605
3180.662109	4399.571289
3179.363281	4208.149414
3178.064453	4295.878418
3176.764648	4200.764648
3175.465820	4315.396484
3174.166016	4170.301758
3172.866211	4225.275879
3171.565430	4137.938965
3170.265625	4240.959473
3168.964844	4293.965332
3167.664063	4273.925293
3166.362305	4286.556152
3165.061523	4105.161133
3163.759766	4200.405762
3162.458008	4165.036133
3161.155273	4100.881348
3159.853516	4090.497559
3158.550781	4162.641113
3157.248047	4102.360840
3155.944336	4214.760742
3154.640625	4010.639648
3153.337891	4084.660156
3152.033203	4143.313477
3150.729492	4081.176514
3149.424805	4040.145752
3148.120117	4024.041016
3146.815430	4040.511719
3145.509766	4062.722412
3144.205078	4102.160156
3142.899414	4082.225586
3141.592773	4110.158203
3140.287109	4009.841064
3138.980469	4028.208008
3137.673828	3989.169434
3136.367188	3967.361816
3135.059570	4016.326172
3133.752930	4084.393311
3132.445313	3944.047852
3131.136719	4006.367920
3129.829102	3881.379395
3128.520508	3962.794189
3127.211914	3988.778076
3125.902344	4039.581055
3124.593750	3996.794189
3123.284180	3971.206543
3121.974609	3890.271240
3120.664063	3916.242920
3119.354492	3850.614014
3118.043945	3935.723877
3116.733398	3841.505127
3115.421875	3842.674072
3114.111328	3838.122314
3112.799805	3827.853271
3111.488281	3840.459229
3110.175781	3696.803467
3108.864258	3823.741455
3107.551758	3857.293457
3106.238281	3850.838623
3104.925781	3829.153076
3103.612305	3801.764648
3102.298828	3854.328125
3100.985352	3943.028076
3099.671875	3858.553711
3098.357422	3825.473145
3097.042969	3820.933594
3095.727539	3871.540283
3094.413086	3792.847412
3093.097656	3790.216797
3091.782227	3749.578369
3090.466797	3758.357422
3089.150391	3788.029785
3087.833984	3717.024902
3086.517578	3678.330078
3085.201172	3782.046143
3083.883789	3792.707764
3082.566406	3746.428467
3081.249023	3692.576660
3079.931641	3729.809082
3078.613281	3719.606934
3077.294922	3790.955078
3075.976563	3630.956055
3074.658203	3793.286621
3073.338867	3752.754395
3072.019531	3704.657471
3070.700195	3766.465820
3069.379883	3705.124756
3068.060547	3539.644531
3066.740234	3830.562500
3065.418945	3661.334961
3064.098633	3692.806885
3062.777344	3642.892578
3061.456055	3621.378174
3060.134766	3645.272217
3058.812500	3680.504639
3057.491211	3619.284912
3056.167969	3548.635498
3054.845703	3617.889893
3053.523438	3715.465088
3052.200195	3665.622070
3050.876953	3661.136963
3049.552734	3582.991699
3048.229492	3627.622559
3046.905273	3549.513428
3045.580078	3639.437256
3044.255859	3584.003418
3042.930664	3662.563965
3041.605469	3561.868408
3040.280273	3664.923584
3038.955078	3624.613525
3037.628906	3459.876465
3036.302734	3532.729004
3034.976563	3639.478760
3033.649414	3572.822510
3032.322266	3626.770020
3030.995117	3507.398682
3029.667969	3574.520996
3028.339844	3579.479736
3027.012695	3652.209473
3025.684570	3538.571289
3024.355469	3505.896729
3023.027344	3546.612549
3021.698242	3568.501221
3020.369141	3496.343262
3019.039063	3599.090088
3017.708984	3613.435303
3016.378906	3484.919434
3015.048828	3465.453125
3013.718750	3507.999756
3012.387695	3479.143066
3011.056641	3561.112793
3009.725586	3569.814209
3008.393555	3572.879395
3007.062500	3519.629150
3005.730469	3584.635986
3004.397461	3561.426270
3003.065430	3495.076416
3001.732422	3524.411621
3000.399414	3523.730469
2999.065430	3534.299072
2997.732422	3589.853760
2996.398438	3630.392822
2995.064453	3447.925049
2993.729492	3554.048584
2992.395508	3470.942627
2991.060547	3530.200439
2989.724609	3458.365723
2988.389648	3485.777588
2987.053711	3580.560059
2985.717773	3536.826660
2984.381836	3624.078125
2983.044922	3514.881348
2981.708984	3607.713867
2980.372070	3513.521240
2979.034180	3548.362305
2977.697266	3515.899902
2976.359375	3464.761719
2975.021484	3518.275879
2973.682617	3502.650146
2972.344727	3507.575195
2971.005859	3435.936523
2969.666016	3478.212158
2968.327148	3449.539307
2966.987305	3542.184814
2965.647461	3500.448975
2964.307617	3473.653320
2962.967773	3577.431152
2961.626953	3500.280273
2960.286133	3469.770752
2958.944336	3523.157471
2957.603516	3500.110107
2956.261719	3417.443115
2954.919922	3394.424805
2953.577148	3486.899902
2952.235352	3476.912598
2950.892578	3461.343262
2949.549805	3512.796631
2948.206055	3283.186035
2946.863281	3403.505371
2945.519531	3553.545654
2944.174805	3480.311523
2942.831055	3440.581299
2941.486328	3488.259033
2940.141602	3437.388184
2938.796875	3408.841064
2937.451172	3460.213379
2936.105469	3478.121826
2934.759766	3425.434082
2933.414063	3458.200195
2932.067383	3461.243164
2930.720703	3495.845703
2929.374023	3524.866211
2928.027344	3377.573242
2926.679688	3427.014893
2925.332031	3422.639648
2923.984375	3473.907715
2922.635742	3361.971436
2921.287109	3446.603271
2919.938477	3349.544434
2918.589844	3400.786377
2917.240234	3422.361084
2915.890625	3375.382324
2914.541016	3445.111084
2913.191406	3405.553223
2911.840820	3484.505859
2910.490234	3404.230469
2909.139648	3464.644775
2907.789063	3389.955322
2906.437500	3415.197510
2905.085938	3394.187500
2903.734375	3454.555908
2902.381836	3270.836182
2901.029297	3532.704102
2899.676758	3402.639648
2898.324219	3414.913818
2896.970703	3393.927002
2895.617188	3524.416992
2894.263672	3411.075928
2892.910156	3465.806641
2891.555664	3494.670654
2890.201172	3335.257324
2888.846680	3497.002686
2887.491211	3483.407471
2886.135742	3449.526123
2884.780273	3389.837402
2883.424805	3339.391357
2882.068359	3523.100830
2880.712891	3450.529541
2879.355469	3403.786377
2877.999023	3436.289551
2876.641602	3409.830811
2875.284180	3460.737793
2873.926758	3349.577881
2872.569336	3409.681641
2871.210938	3455.036133
2869.852539	3408.354736
2868.494141	3459.211426
2867.134766	3342.640137
2865.775391	3360.382324
2864.416016	3492.131348
2863.056641	3419.747070
2861.696289	3384.155029
2860.335938	3490.091797
2858.975586	3421.424561
2857.614258	3422.595459
2856.253906	3427.439209
2854.892578	3439.626709
2853.530273	3354.497314
2852.168945	3462.150879
2850.806641	3441.287598
2849.444336	3469.976807
2848.082031	3395.915283
2846.718750	3428.270508
2845.355469	3376.252686
2843.992188	3500.277100
2842.627930	3314.440918
2841.264648	3449.425781
2839.900391	3379.118652
2838.535156	3479.227295
2837.170898	3518.848145
2835.805664	3463.219482
2834.440430	3460.713135
2833.075195	3430.746826
2831.708984	3294.631836
2830.342773	3405.618896
2828.976563	3443.376953
2827.609375	3417.095459
2826.243164	3438.375977
2824.875977	3496.219238
2823.507813	3347.452148
2822.140625	3438.191650
2820.772461	3287.666016
2819.404297	3418.578613
2818.035156	3397.816895
2816.666992	3455.599365
2815.297852	3458.576904
2813.928711	3357.487549
2812.558594	3373.260498
2811.189453	3483.927002
2809.819336	3525.213623
2808.448242	3520.876709
2807.078125	3376.098389
2805.707031	3519.501709
2804.335938	3500.582031
2802.963867	3346.777832
2801.592773	3424.491943
2800.220703	3458.443848
2798.848633	3375.787598
2797.475586	3331.413574
2796.102539	3483.733643
2794.729492	3402.940918
2793.356445	3471.449951
2791.982422	3463.491699
2790.609375	3415.503418
2789.234375	3453.041260
2787.860352	3445.090576
2786.485352	3435.324219
2785.110352	3469.199219
2783.735352	3488.517578
2782.360352	3402.411621
2780.984375	3472.616211
2779.608398	3459.219482
2778.231445	3418.580811
2776.855469	3501.453125
2775.478516	3406.349121
2774.101563	3427.467529
2772.723633	3552.034912
2771.346680	3486.011230
2769.968750	3407.312988
2768.589844	3468.321533
2767.211914	3376.961914
2765.833008	3414.379639
2764.454102	3323.065918
2763.075195	3456.544678
2761.695313	3457.680176
2760.315430	3433.449463
2758.935547	3409.227783
2757.554688	3410.371582
2756.174805	3453.162598
2754.793945	3479.642822
2753.412109	3450.000488
2752.031250	3315.405518
2750.649414	3439.602295
2749.267578	3404.557617
2747.884766	3469.002197
2746.502930	3455.664551
2745.120117	3458.603516
2743.736328	3403.698242
2742.353516	3477.128174
2740.969727	3442.115967
2739.585938	3401.697754
2738.202148	3381.163086
2736.817383	3403.976318
2735.432617	3385.254395
2734.047852	3429.718750
2732.662109	3436.265381
2731.277344	3464.462158
2729.891602	3505.276123
2728.504883	3484.748291
2727.119141	3458.818115
2725.732422	3310.294434
2724.345703	3480.895996
2722.958008	3500.038330
2721.571289	3483.134521
2720.183594	3491.459229
2718.794922	3469.159424
2717.407227	3464.877197
2716.018555	3377.772461
2714.629883	3519.322754
2713.241211	3417.842773
2711.851563	3469.356201
2710.461914	3456.081787
2709.072266	3512.963379
2707.681641	3515.870605
2706.291016	3466.633301
2704.900391	3510.895020
2703.509766	3350.242432
2702.119141	3604.756836
2700.727539	3566.319824
2699.334961	3596.156250
2697.943359	3487.694336
2696.550781	3510.351807
2695.158203	3439.648682
2693.765625	3571.793457
2692.372070	3515.461670
2690.979492	3539.889404
2689.584961	3576.864014
2688.191406	3554.639648
2686.796875	3580.837891
2685.402344	3540.693359
2684.007813	3545.374756
2682.613281	3559.014404
2681.217773	3524.272705
2679.822266	3561.198242
2678.425781	3485.276367
2677.030273	3504.288086
2675.633789	3619.968018
2674.237305	3520.809570
2672.839844	3502.221436
2671.442383	3505.111084
2670.044922	3459.699707
2668.647461	3693.316895
2667.249023	3631.792236
2665.850586	3670.410156
2664.452148	3528.477295
2663.053711	3581.396973
2661.654297	3511.008057
2660.254883	3483.520996
2658.855469	3454.258301
2657.455078	3448.221436
2656.054688	3590.372070
2654.654297	3577.170166
2653.252930	3519.356934
2651.852539	3616.801270
2650.451172	3573.274170
2649.048828	3743.797119
2647.647461	3457.738525
2646.245117	3637.131348
2644.842773	3590.068604
2643.439453	3689.165283
2642.037109	3592.218506
2640.633789	3586.166260
2639.229492	3580.116455
2637.826172	3566.945557
2636.421875	3557.340576
2635.017578	3453.393799
2633.613281	3609.331299
2632.208008	3546.341064
2630.802734	3618.583252
2629.397461	3612.533936
2627.991211	3602.930176
2626.584961	3516.876221
2625.178711	3656.616943
2623.772461	3575.917725
2622.365234	3587.651367
2620.958008	3626.029053
2619.550781	3541.830566
2618.142578	3612.167725
2616.735352	3517.351563
2615.326172	3557.487305
2613.917969	3641.978027
2612.508789	3568.505615
2611.099609	3551.834229
2609.690430	3607.894775
2608.281250	3697.628662
2606.871094	3519.589600
2605.460938	3644.760010
2604.049805	3555.420898
2602.639648	3607.880615
2601.228516	3624.885498
2599.817383	3597.599854
2598.405273	3605.744629
2596.993164	3651.069580
2595.581055	3616.712891
2594.168945	3608.919189
2592.755859	3572.814453
2591.342773	3596.878418
2589.929688	3649.235107
2588.516602	3579.541016
2587.102539	3663.707520
2585.688477	3655.912354
2584.273438	3573.885010
2582.859375	3606.754883
2581.444336	3650.212402
2580.028320	3631.826416
2578.613281	3650.535889
2577.197266	3676.300781
2575.781250	3654.389404
2574.365234	3597.185303
2572.948242	3778.239258
2571.531250	3636.343506
2570.114258	3630.332764
2568.696289	3772.471436
2567.278320	3648.293701
2565.860352	3649.335205
2564.442383	3743.794678
2563.023438	3665.514648
2561.604492	3740.552246
2560.185547	3713.388672
2558.766602	3656.295166
2557.346680	3683.745850
2555.926758	3577.385498
2554.505859	3657.645752
2553.084961	3635.804199
2551.665039	3645.641602
2550.243164	3632.606201
2548.822266	3719.826416
2547.400391	3705.022705
2545.978516	3711.321533
2544.555664	3751.014893
2543.133789	3641.313965
2541.710938	3763.586182
2540.287109	3796.218018
2538.864258	3658.471191
2537.440430	3770.130859
2536.016602	3751.827637
2534.591797	3735.286865
2533.167969	3743.321777
2531.743164	3779.427002
2530.317383	3724.296143
2528.892578	3713.034912
2527.466797	3707.038330
2526.041016	3837.795166
2524.614258	3740.626953
2523.187500	3746.895752
2521.760742	3754.913818
2520.333984	3750.666016
2518.906250	3804.218506
2517.479492	3710.654297
2516.050781	3716.921631
2514.623047	3829.963379
2513.194336	3830.954102
2511.765625	3718.210693
2510.336914	3799.695068
2508.907227	3807.686768
2507.477539	3794.690674
2506.047852	3872.614014
2504.617188	3856.113770
2503.186523	3820.395508
2501.755859	3819.637451
2500.325195	3780.446289
2498.893555	3763.976563
2497.461914	3883.722656
2496.030273	3788.671631
2494.597656	3777.446289
2493.166016	3802.875000
2491.732422	3781.181396
2490.299805	3796.131592
2488.866211	3767.470947
2487.432617	3780.673584
2485.999023	3790.384033
2484.564453	3821.008301
2483.130859	3811.535400
2481.695313	3894.416748
2480.260742	3857.058838
2478.825195	3934.672607
2477.389648	3946.080811
2475.954102	3922.662842
2474.517578	3892.291016
2473.081055	3959.392822
2471.644531	3904.664795
2470.207031	3909.107910
2468.770508	3899.634277
2467.332031	3862.339844
2465.894531	3884.174805
2464.456055	3815.608398
2463.017578	3959.101563
2461.579102	3925.299561
2460.140625	3974.900146
2458.701172	3925.475586
2457.261719	3844.811768
2455.821289	3969.056885
2454.380859	3980.418701
2452.940430	3858.138184
2451.500000	3954.542480
2450.058594	3988.453125
2448.617188	3906.137207
2447.175781	3924.436035
2445.734375	3963.533203
2444.291992	3936.742188
2442.849609	3923.826904
2441.407227	3903.985107
2439.963867	3915.335205
2438.520508	3964.786865
2437.077148	4104.270020
2435.632813	3999.568359
2434.188477	3977.999023
2432.744141	3997.975830
2431.299805	4028.326416
2429.854492	4015.414063
2428.409180	4011.155029
2426.963867	3906.595215
2425.517578	3969.790283
2424.071289	3946.526855
2422.625000	3950.925537
2421.177734	3970.874023
2419.730469	3987.359131
2418.283203	3996.928467
2416.835938	4047.939941
2415.387695	3965.983398
2413.939453	4011.801758
2412.491211	3985.113525
2411.041992	4024.007080
2409.593750	4076.686523
2408.143555	4068.974365
2406.693359	4014.702637
2405.244141	4053.558350
2403.794922	4047.578613
2402.343750	4191.544922
2400.892578	4089.043213
2399.441406	4031.374756
2397.990234	4047.795410
2396.539063	4112.428711
2395.085938	4085.781494
2393.634766	4010.944580
2392.181641	3989.491211
2390.728516	4105.706055
2389.275391	4158.219238
2387.822266	4071.386230
2386.369141	3970.830078
2384.914063	4105.868164
2383.460938	4099.891113
2382.005859	4140.321289
2380.550781	4099.972656
2379.095703	4071.666260
2377.640625	4117.229980
2376.183594	4193.687012
2374.728516	4129.321289
2373.271484	4058.114746
2371.814453	4088.197510
2370.357422	3994.719727
2368.900391	4110.582520
2367.443359	4192.093750
2365.986328	4108.940430
2364.527344	3979.526367
2363.068359	4189.581543
2361.611328	4260.727539
2360.152344	4136.500488
2358.693359	4168.224609
2357.232422	4189.658691
2355.773438	4086.070068
2354.312500	4153.740234
2352.851563	4060.470703
2351.392578	4133.252930
2349.931641	4156.382813
2348.468750	4222.272949
2347.007813	4141.036621
2345.546875	4109.426270
2344.083984	4303.519043
2342.621094	4153.937012
2341.158203	4182.160645
2339.695313	4128.352539
2338.232422	4151.444336
2336.769531	4171.110352
2335.304688	4187.353027
2333.839844	4177.978027
2332.375000	4214.696777
2330.910156	4328.202637
2329.445313	4136.223633
2327.980469	4237.756836
2326.515625	4224.968750
2325.048828	4128.623535
2323.582031	4144.847168
2322.115234	4193.452148
2320.648438	4090.353271
2319.181641	4314.458496
2317.714844	4197.747559
2316.246094	4248.005371
2314.779297	4127.947754
2313.310547	4312.705078
2311.841797	4204.598145
2310.373047	4198.649902
2308.904297	4303.306641
2307.433594	4202.070801
2305.964844	4201.228516
2304.494141	4295.618164
2303.023438	4250.551270
2301.552734	4300.695801
2300.082031	4196.161621
2298.611328	4178.328125
2297.138672	4225.058594
2295.667969	4239.498047
2294.195313	4270.913086
2292.722656	4242.891113
2291.250000	4408.394531
2289.777344	4256.463379
2288.302734	4203.008301
2286.830078	4385.384277
2285.355469	4294.609375
2283.880859	4231.003418
2282.408203	4447.172363
2280.931641	4227.610352
2279.457031	4304.721680
2277.982422	4402.134766
2276.505859	4236.923828
2275.029297	4432.548828
2273.554688	4296.186035
2272.078125	4268.234375
2270.599609	4328.315430
2269.123047	4386.680176
2267.646484	4253.819336
2266.167969	4332.475098
2264.689453	4370.506836
2263.210938	4296.914551
2261.732422	4307.886230
2260.253906	4210.670410
2258.775391	4372.065918
2257.294922	4410.049805
2255.814453	4301.046387
2254.333984	4450.502441
2252.853516	4474.937988
2251.373047	4338.973145
2249.892578	4420.812012
2248.412109	4433.424805
2246.929688	4319.484375
2245.447266	4408.024902
2243.964844	4477.976563
2242.482422	4448.409180
2241.000000	4356.474121
2239.517578	4482.018066
2238.033203	4438.984863
2236.548828	4210.627441
2235.066406	4408.561523
2233.582031	4446.412109
2232.095703	4490.983398
2230.611328	4384.014648
2229.126953	4389.865723
2227.640625	4515.199219
2226.154297	4441.940430
2224.667969	4392.262207
2223.181641	4450.244141
2221.695313	4457.755859
2220.208984	4392.972656
2218.720703	4484.535645
2217.234375	4428.175781
2215.746094	4586.901367
2214.257813	4554.060547
2212.769531	4596.810547
2211.279297	4634.505859
2209.791016	4586.564941
2208.300781	4501.716797
2206.812500	4482.350098
2205.322266	4454.602051
2203.832031	4577.837891
2202.341797	4452.807129
2200.849609	4631.327637
2199.359375	4538.188965
2197.867188	4411.564453
2196.375000	4429.109375
2194.882813	4510.313477
2193.390625	4499.353516
2191.898438	4732.915039
2190.404297	4633.168945
2188.912109	4588.708008
2187.417969	4535.895996
2185.923828	4650.447754
2184.429688	4508.970703
2182.935547	4579.989258
2181.439453	4436.910645
2179.945313	4589.846191
2178.449219	4672.507324
2176.953125	4611.394043
2175.458984	4605.450684
2173.960938	4604.520996
2172.464844	4665.396484
2170.968750	4626.043457
2169.470703	4613.421875
2167.972656	4659.233398
2166.474609	4549.805176
2164.976563	4647.339844
2163.478516	4504.590332
2161.980469	4747.213379
2160.480469	4697.891602
2158.982422	4673.600098
2157.482422	4652.651855
2155.982422	4578.377930
2154.482422	4719.092773
2152.980469	4679.821289
2151.480469	4678.875977
2149.978516	4674.599609
2148.476563	4708.620117
2146.974609	4810.877930
2145.472656	4730.018066
2143.970703	4680.806152
2142.468750	4739.751953
2140.964844	4600.738281
2139.462891	4779.410645
2137.958984	4743.528809
2136.455078	4662.778809
2134.949219	4708.371094
2133.445313	4743.975098
2131.941406	4688.192871
2130.435547	4690.566895
2128.929688	4804.201172
2127.423828	4668.746094
2125.917969	4727.560059
2124.412109	4754.816895
2122.906250	4793.677734
2121.398438	4678.240234
2119.890625	4740.321289
2118.382813	4777.502441
2116.875000	4806.378418
2115.367188	4883.312988
2113.859375	4797.803711
2112.349609	4735.525879
2110.841797	4807.457520
2109.332031	4766.733887
2107.822266	4841.941895
2106.312500	4794.604492
2104.800781	4884.672852
2103.291016	4858.859863
2101.779297	4836.366211
2100.269531	4798.992676
2098.757813	4832.752930
2097.246094	4866.499023
2095.732422	4848.980957
2094.220703	4910.809082
2092.707031	4822.227051
2091.195313	4943.516113
2089.681641	4815.317383
2088.167969	4888.662109
2086.654297	4881.066406
2085.138672	4866.869629
2083.625000	4804.811523
2082.109375	4906.152344
2080.593750	4910.106934
2079.078125	4882.718262
2077.562500	4838.848145
2076.046875	4979.671875
2074.531250	4980.310547
2073.013672	4872.165527
2071.496094	5042.558105
2069.978516	4919.615723
2068.460938	4900.498047
2066.943359	4911.032227
2065.425781	4977.544434
2063.906250	5053.906738
2062.386719	4929.439453
2060.869141	4939.958008
2059.349609	4876.436523
2057.828125	4914.924316
2056.308594	4989.575684
2054.789063	4935.947754
2053.267578	4921.794434
2051.746094	4988.180664
2050.224609	4816.272949
2048.703125	4935.225586
2047.181641	4924.367676
2045.658203	4923.367676
2044.136719	4945.353516
2042.613281	5051.049805
2041.089844	4995.863281
2039.566406	4921.008789
2038.042969	5015.160645
2036.517578	4994.458496
2034.994141	5008.202637
2033.468750	4939.963379
2031.943359	4924.206055
2030.417969	4975.649414
2028.892578	5102.444824
2027.367188	4990.008789
2025.839844	5046.319824
2024.314453	5001.080078
2022.787109	5039.355957
2021.259766	5062.884277
2019.732422	5019.304199
2018.203125	4967.560547
2016.675781	5053.251953
2015.146484	5078.393066
2013.619141	5106.793457
2012.089844	5027.279785
2010.560547	5031.160645
2009.029297	5003.989258
2007.500000	5042.184082
2005.968750	5096.698730
2004.439453	5107.093750
2002.908203	5057.067383
2001.376953	5003.795898
1999.843750	5074.595215
1998.312500	5062.138672
1996.781250	5144.317383
1995.248047	5063.339844
1993.714844	5090.033691
1992.181641	5167.264160
1990.648438	5109.153320
1989.115234	5104.852539
1987.580078	5051.666504
1986.044922	5104.402344
1984.511719	5118.021973
1982.976563	5240.750977
1981.441406	5223.400391
1979.904297	5119.777344
1978.369141	5112.223633
1976.832031	5114.436035
1975.294922	5126.408691
1973.759766	5185.547363
1972.220703	5117.813477
1970.683594	5105.388672
1969.146484	5114.101074
1967.607422	5228.451172
1966.068359	5251.758789
1964.531250	5198.700684
1962.992188	5272.356445
1961.451172	5157.605469
1959.912109	5153.306152
1958.371094	5223.678711
1956.832031	5204.760254
1955.291016	5200.453125
1953.750000	5277.260742
1952.208984	5345.927246
1950.666016	5328.620117
1949.125000	17673.593750
1947.582031	5815.971680
1946.039063	5228.120117
1944.496094	5205.988770
1942.953125	5260.004395
1941.410156	5257.310547
1939.865234	5332.343750
1938.322266	5268.115234
1936.777344	5281.606934
1935.232422	5324.222168
1933.687500	5237.381836
1932.142578	5331.752930
1930.595703	5113.943359
1929.050781	5209.917480
1927.503906	5234.719238
1925.957031	5296.686035
1924.410156	5281.059082
1922.863281	5237.972656
1921.314453	5322.514648
1919.767578	5239.061523
1918.218750	5318.723633
1916.669922	5246.604980
1915.121094	5180.972168
1913.572266	5326.757324
1912.021484	5270.813965
1910.472656	5398.777344
1908.921875	5333.165527
1907.371094	5253.068848
1905.820313	5268.114746
1904.269531	5265.424805
1902.718750	5352.973145
1901.166016	5322.878906
1899.615234	5283.132324
1898.062500	5267.557617
1896.509766	5279.359863
1894.957031	5365.204590
1893.402344	5376.981445
1891.849609	5414.498047
1890.294922	5517.957031
1888.740234	5465.358398
1887.185547	5404.740234
1885.630859	5541.899414
1884.076172	5394.489746
1882.519531	5393.384766
1880.964844	5406.740723
1879.408203	5487.561035
1877.851563	5496.073242
1876.294922	5331.158691
1874.736328	5272.270508
1873.179688	5465.408691
1871.621094	5493.174805
1870.064453	5527.346680
1868.505859	5511.776855
1866.947266	5372.720215
1865.386719	5421.326172
1863.828125	5433.040039
1862.267578	5486.421387
1860.708984	5429.209473
1859.148438	5263.074707
1857.587891	5436.594238
1856.025391	5429.072754
1854.464844	5541.642090
1852.902344	5425.245117
1851.341797	5462.544434
1849.779297	5471.024902
1848.216797	5492.300293
1846.652344	5500.770020
1845.089844	5472.455078
1843.525391	5423.365723
1841.962891	5519.763672
1840.398438	5409.952148
1838.833984	5531.878906
1837.267578	5402.938477
1835.703125	5558.357422
1834.136719	5659.417969
1832.572266	5465.070313
1831.005859	5566.107910
1829.439453	5635.185059
1827.873047	5551.057129
1826.304688	5489.296875
1824.738281	5606.194336
1823.169922	5526.906738
1821.601563	5600.702148
1820.033203	5583.611816
1818.464844	5478.878906
1816.896484	5667.354980
1815.326172	5479.812988
1813.755859	5677.767090
1812.185547	5541.252930
1810.615234	5586.281738
1809.044922	5629.699219
1807.474609	5547.383789
1805.902344	5590.791504
1804.332031	5511.698730
1802.759766	5545.552734
1801.187500	5576.212402
1799.615234	5590.962402
1798.041016	5499.218262
1796.468750	5645.868164
1794.894531	5511.254395
1793.320313	5610.188965
1791.746094	5647.147949
1790.171875	5663.450684
1788.597656	5678.159180
1787.021484	5565.895020
1785.445313	5547.294922
1783.871094	5584.227051
1782.294922	5676.657715
1780.716797	5634.258789
1779.140625	5658.465820
1777.564453	5733.386230
1775.986328	5627.608887
1774.408203	5642.294922
1772.830078	5683.904297
1771.251953	5701.739258
1769.673828	5719.566406
1768.093750	5648.729004
1766.513672	5614.325684
1764.935547	5730.274414
1763.355469	5610.429688
1761.773438	5618.764648
1760.193359	5718.824707
1758.613281	5573.756348
1757.031250	5566.283691
1755.449219	5772.188965
1753.867188	5691.987305
1752.285156	5659.215820
1750.701172	5839.700195
1749.119141	5637.930664
1747.535156	5715.714355
1745.951172	5766.629395
1744.367188	5733.874512
1742.783203	5794.231445
1741.199219	5838.787109
1739.613281	5850.201172
1738.029297	5719.682129
1736.443359	5751.611328
1734.857422	5758.306152
1733.271484	5739.781738
1731.683594	5752.777832
1730.097656	5907.549805
1728.509766	5670.077148
1726.921875	5632.688477
1725.333984	5785.813965
1723.746094	5718.509277
1722.158203	5885.716309
1720.568359	5799.537598
1718.978516	5774.743652
1717.390625	5845.896973
1715.800781	5773.930664
1714.208984	5900.077637
1712.619141	5878.425293
1711.027344	5960.497559
1709.437500	5860.285156
1707.845703	5786.817383
1706.253906	5988.212402
1704.662109	5793.846680
1703.068359	5954.340820
1701.476563	5846.383789
1699.882813	5749.455566
1698.289063	5952.217285
1696.695313	5864.717773
1695.101563	5919.960449
1693.505859	5975.179688
1691.912109	5941.024902
1690.316406	5991.514648
1688.720703	5952.669922
1687.125000	6007.834961
1685.529297	5895.388184
1683.933594	5938.014160
1682.335938	6099.608887
1680.738281	6120.260742
1679.140625	5987.537109
1677.542969	6008.203125
1675.945313	5952.208496
1674.347656	5961.924316
1672.748047	5955.999023
1671.148438	6001.666016
1669.548828	6050.439941
1667.949219	5964.801758
1666.349609	5924.506836
1664.748047	6035.747559
1663.148438	6029.812012
1661.546875	6034.808594
1659.945313	6011.703613
1658.343750	6010.458008
1656.742188	6062.267090
1655.138672	6137.456055
1653.537109	6104.988770
1651.933594	6024.190918
1650.330078	6270.845215
1648.726563	6029.488281
1647.121094	6127.981445
1645.517578	6012.965332
1643.912109	6027.296875
1642.306641	6247.215332
1640.701172	6189.860352
1639.095703	6020.434570
1637.490234	6107.909180
1635.884766	6168.891602
1634.277344	6046.251465
1632.669922	6102.553711
1631.062500	6034.411621
1629.455078	6059.593262
1627.845703	6190.478516
1626.238281	6116.142090
1624.628906	6166.153809
1623.019531	6177.303223
1621.410156	6200.874023
1619.800781	6101.748047
1618.191406	6092.717773
1616.580078	6144.232910
1614.968750	6223.663086
1613.359375	6101.336914
1611.746094	6132.649414
1610.134766	6108.109863
1608.523438	6272.770996
1606.910156	6209.451172
1605.298828	6191.109863
1603.685547	6316.905762
1602.070313	6300.098633
1600.457031	6122.187988
1598.843750	6173.575684
1597.228516	6271.395996
1595.613281	6143.142578
1593.998047	6179.014160
1592.382813	6236.536133
1590.767578	6351.279785
1589.152344	6261.787109
1587.535156	6252.752441
1585.917969	6262.275879
1584.300781	6302.713379
1582.683594	6293.674805
1581.066406	6232.099609
1579.447266	6297.236816
1577.828125	6400.961914
1576.210938	6390.364258
1574.591797	6242.355469
1572.970703	6271.930176
1571.351563	6326.185547
1569.730469	6391.219238
1568.111328	6284.984863
1566.490234	6396.270996
1564.869141	6482.836914
1563.248047	6281.061035
1561.625000	6190.350586
1560.003906	6340.089844
1558.380859	6309.494629
1556.757813	6454.524414
1555.134766	6442.399414
1553.511719	6387.164063
1551.886719	6408.926270
1550.263672	6404.512695
1548.638672	6392.406250
1547.013672	6378.766113
1545.388672	6371.284180
1543.761719	6486.836426
1542.136719	6373.242188
1540.509766	6367.301758
1538.882813	6442.821289
1537.255859	6441.478516
1535.628906	6455.498535
1534.001953	6452.616699
1532.373047	6409.808594
1530.746094	6400.795410
1529.117188	6488.491211
1527.488281	6387.383301
1525.859375	6359.966797
1524.228516	6489.034668
1522.599609	6460.073730
1520.968750	6543.063477
1519.337891	6457.378418
1517.707031	6572.521973
1516.076172	6557.358398
1514.443359	6588.164551
1512.810547	6459.649414
1511.179688	6585.414551
1509.546875	6646.818359
1507.914063	6409.679199
1506.279297	6464.970703
1504.646484	6563.084961
1503.011719	6621.380371
1501.376953	6745.422852
1499.742188	6432.045898
1498.107422	6682.977051
1496.472656	6504.261719
1494.835938	6516.657715
1493.201172	6544.327637
1491.564453	6623.926270
1489.927734	6734.038086
1488.289063	6531.063965
1486.652344	6712.903320
1485.013672	6558.862305
1483.376953	6577.330078
1481.738281	6591.212891
1480.099609	6595.936523
1478.458984	6702.839844
1476.820313	6663.318848
1475.179688	6684.792480
1473.539063	6628.525391
1471.898438	6581.424316
1470.257813	6762.869141
1468.617188	6622.843750
1466.974609	6700.647949
1465.333984	6775.374023
1463.691406	6740.467285
1462.048828	6697.964844
1460.406250	6774.165039
1458.761719	6676.906738
1457.119141	6789.581543
1455.474609	6734.937500
1453.830078	6765.454590
1452.185547	6792.918457
1450.539063	6742.866211
1448.894531	6809.826172
1447.248047	6809.919434
1445.603516	6863.167969
1443.957031	6746.330566
1442.308594	6764.652832
1440.662109	6919.567383
1439.015625	6928.740234
1437.367188	6790.745605
1435.718750	6845.445313
1434.070313	6818.230469
1432.421875	6986.615234
1430.771484	6835.079590
1429.123047	6810.913574
1427.472656	6953.433594
1425.822266	6964.095215
1424.171875	6868.729980
1422.521484	6917.261230
1420.869141	6977.883789
1419.218750	6924.956543
1417.566406	6931.070801
1415.914063	6953.825684
1414.261719	6990.184570
1412.607422	6882.851563
1410.955078	6970.619629
1409.300781	6836.123047
1407.646484	7020.594727
1405.992188	7103.744141
1404.337891	6998.008301
1402.683594	7081.126465
1401.027344	6948.256348
1399.371094	7076.644531
1397.714844	7010.249512
1396.058594	6937.844727
1394.402344	7046.537598
1392.744141	7185.355469
1391.087891	7112.958496
1389.429688	6921.463867
1387.771484	7096.402344
1386.113281	7066.272949
1384.453125	7147.673340
1382.794922	7058.784668
1381.134766	7271.204590
1379.474609	7061.842773
1377.814453	7033.255859
1376.154297	7031.777832
1374.492188	7081.473145
1372.832031	7146.195313
1371.169922	7025.840332
1369.507813	6979.239258
1367.845703	7113.116699
1366.181641	7152.215820
1364.519531	7072.545898
1362.855469	7179.266113
1361.191406	7119.156250
1359.527344	7090.618164
1357.863281	7078.613281
1356.199219	7120.671387
1354.533203	7152.201660
1352.867188	7168.708984
1351.201172	7227.227539
1349.535156	7086.173828
1347.869141	7345.688965
1346.201172	7297.651855
1344.535156	7246.635254
1342.867188	7260.100586
1341.199219	7267.564941
1339.531250	7188.115234
1337.861328	7283.980957
1336.193359	7276.456055
1334.523438	7244.973145
1332.853516	7331.782227
1331.183594	7393.106934
1329.511719	7315.225098
1327.841797	7295.729004
1326.169922	7418.354492
1324.500000	7310.602539
1322.828125	7373.360352
1321.154297	7364.331543
1319.482422	7516.731445
1317.808594	7464.338867
1316.136719	7559.878418
1314.462891	7510.485352
1312.789063	7664.217773
1311.113281	7435.649902
1309.439453	7396.762695
1307.763672	7450.424316
1306.087891	7429.455078
1304.412109	7530.825195
1302.736328	7515.813477
1301.060547	7448.614258
1299.382813	7512.642578
1297.707031	7637.757324
1296.029297	7546.729492
1294.351563	7634.534668
1292.671875	7562.910645
1290.994141	7626.844727
1289.314453	7647.570313
1287.636719	7773.983887
1285.957031	7687.504883
1284.275391	7754.333008
1282.595703	7629.212402
1280.914063	7710.897949
1279.234375	7724.141113
1277.552734	7721.022949
1275.871094	7685.202637
1274.189453	7870.838867
1272.505859	7873.633789
1270.822266	7825.918457
1269.140625	7873.277832
1267.457031	7861.219727
1265.771484	7834.320313
1264.087891	7718.373047
1262.404297	7903.724609
1260.718750	7995.525391
1259.033203	7829.182129
1257.347656	7796.383301
1255.662109	8048.282227
1253.974609	7842.006836
1252.287109	7855.169434
1250.601563	7859.435547
1248.914063	7922.958496
1247.224609	7953.868164
1245.537109	7953.666992
1243.849609	7854.268555
1242.160156	8039.115723
1240.470703	8016.695801
1238.781250	8040.152832
1237.091797	7968.924805
1235.400391	7933.221680
1233.708984	8072.015625
1232.019531	7981.605957
1230.328125	8024.257813
1228.634766	8133.388184
1226.943359	8106.550293
1225.250000	8064.952148
1223.558594	8109.024414
1221.865234	8169.318848
1220.171875	8073.114746
1218.476563	8099.445801
1216.783203	8062.317383
1215.087891	8094.539063
1213.392578	8104.623535
1211.697266	8220.874023
1210.001953	8205.863281
1208.306641	8182.015137
1206.609375	8251.016602
1204.912109	8278.734375
1203.214844	8240.154297
1201.517578	8183.916504
1199.820313	8223.409180
1198.121094	8309.991211
1196.423828	8380.346680
1194.724609	8452.142578
1193.025391	8345.897461
1191.326172	8452.970703
1189.625000	8458.530273
1187.923828	8337.647461
1186.224609	8410.844727
1184.523438	8486.948242
1182.822266	8432.252930
1181.119141	8387.863281
1179.417969	8650.443359
1177.714844	8531.138672
1176.011719	8539.604492
1174.308594	8504.034180
1172.605469	8566.794922
1170.900391	8614.857422
1169.197266	8592.493164
1167.492188	8574.537109
1165.787109	8717.868164
1164.080078	8707.220703
1162.375000	8790.373047
1160.667969	8680.078125
1158.962891	8685.558594
1157.255859	8623.664063
1155.548828	8768.262695
1153.839844	8750.295898
1152.132813	8656.223633
1150.423828	8805.111328
1148.714844	8703.751953
1147.005859	8862.803711
1145.296875	8919.417969
1143.585938	8895.589844
1141.876953	9077.886719
1140.166016	8931.267578
1138.455078	8960.053711
1136.744141	8962.530273
1135.033203	9074.548828
1133.320313	9017.128906
1131.607422	9075.068359
1129.894531	9162.175781
1128.181641	8957.378906
1126.468750	9035.719727
1124.753906	9203.006836
1123.041016	9272.509766
1121.326172	9139.308594
1119.611328	9175.265625
1117.896484	9201.003906
1116.179688	9158.245117
1114.464844	9221.852539
1112.748047	9342.238281
1111.031250	9238.313477
1109.314453	9319.333008
1107.595703	9222.733398
1105.878906	9457.982422
1104.160156	9268.274414
1102.441406	9439.406250
1100.722656	9325.409180
1099.003906	9284.162109
1097.283203	9325.796875
1095.562500	9302.007813
1093.843750	9372.681641
1092.123047	9514.512695
1090.400391	9524.104492
1088.679688	9462.534180
1086.957031	9527.303711
1085.236328	9349.630859
1083.513672	9410.041992
1081.789063	9415.290039
1080.066406	9494.518555
1078.341797	9408.373047
1076.619141	9607.920898
1074.894531	9292.730469
1073.169922	9537.148438
1071.443359	9485.843750
1069.718750	9454.843750
1067.992188	9525.250977
1066.265625	9634.727539
1064.539063	9422.730469
1062.812500	9468.488281
1061.085938	9640.136719
1059.357422	9554.156250
1057.628906	9598.408203
1055.900391	9457.511719
1054.171875	9657.934570
1052.443359	9550.334961
1050.712891	9558.413086
1048.982422	9463.885742
1047.251953	9668.466797
1045.521484	9709.735352
1043.791016	9595.016602
1042.058594	9754.677734
1040.328125	9553.383789
1038.595703	9584.537109
1036.863281	9673.392578
1035.128906	9648.243164
1033.396484	9780.315430
1031.662109	9720.543945
1029.927734	9572.854492
1028.193359	9827.375000
1026.458984	9636.492188
1024.724609	9576.799805
1022.988281	9728.880859
1021.251953	9761.364258
1019.515625	9674.325195
1017.779297	9744.232422
1016.042969	9868.799805
1014.304688	9796.180664
1012.568359	9784.013672
1010.830078	9855.273438
1009.089844	9769.760742
1007.351563	9685.720703
1005.613281	9930.876953
1003.873047	9897.135742
1002.132813	9764.270508
1000.392578	9897.207031
998.652344	9777.323242
996.910156	9859.944336
995.169922	9885.107422
993.427734	10010.725586
991.685547	9824.911133
989.941406	10025.086914
988.199219	9868.034180
986.455078	9900.334961
984.712891	9913.984375
982.968750	9977.795898
981.222656	10021.515625
979.478516	9964.921875
977.734375	10025.814453
975.988281	10013.639648
974.242188	9875.466797
972.496094	10040.839844
970.748047	10141.736328
969.001953	9986.452148
967.253906	9994.324219
965.505859	10005.053711
963.757813	10011.487305
962.009766	9982.174805
960.259766	10060.079102
958.511719	10086.502930
956.761719	10017.185547
955.011719	10267.875977
953.259766	10139.993164
951.509766	10077.846680
949.757813	10081.393555
948.007813	10137.746094
946.255859	10134.142578
944.501953	10119.126953
942.750000	10335.182617
940.996094	10301.590820
939.244141	10233.794922
937.490234	10456.811523
935.734375	10225.124023
933.980469	10346.884766
932.224609	10259.192383
930.470703	10380.891602
928.714844	10395.748047
926.958984	10373.583984
925.201172	10334.349609
923.445313	10295.130859
921.687500	10378.277344
919.929688	10374.624023
918.171875	10373.815430
916.414063	10547.880859
914.654297	10357.983398
912.894531	10448.128906
911.136719	10457.248047
909.375000	10295.901367
907.615234	10383.160156
905.855469	10429.203125
904.093750	10558.981445
902.332031	10502.776367
900.570313	10506.192383
898.808594	10520.956055
897.044922	10510.181641
895.283203	10568.896484
893.519531	10453.199219
891.755859	10452.367188
889.992188	10475.625000
888.226563	10491.789063
886.462891	10517.860352
884.697266	10436.286133
882.931641	10342.001953
881.166016	10604.498047
879.398438	10524.370117
877.632813	10742.846680
875.865234	10623.110352
874.097656	10560.001953
872.330078	10755.701172
870.562500	10483.347656
868.792969	10625.264648
867.023438	10511.332031
865.253906	10582.537109
863.484375	10499.738281
861.714844	10698.017578
859.943359	10651.940430
858.173828	10619.998047
856.402344	10593.714844
854.628906	10711.370117
852.857422	10690.719727
851.085938	10540.316406
849.312500	10838.404297
847.539063	10699.310547
845.765625	10730.831055
843.992188	10732.743164
842.216797	10623.348633
840.441406	10688.669922
838.667969	10589.188477
836.892578	10647.447266
835.115234	10774.658203
833.339844	10631.590820
831.562500	10800.962891
829.785156	10859.123047
828.007813	10824.428711
826.230469	10685.689453
824.451172	10771.953125
822.673828	10765.409180
820.894531	10813.673828
819.115234	10898.446289
817.335938	10806.192383
815.554688	10798.239258
813.775391	10828.199219
811.994141	10903.066406
810.212891	10812.291992
808.431641	10961.496094
806.648438	10782.366211
804.867188	10962.367188
803.083984	10940.365234
801.300781	10933.793945
799.515625	10875.363281
797.732422	11045.375977
795.947266	11014.965820
794.164063	11001.377930
792.378906	11027.005859
790.591797	10943.413086
788.806641	11018.035156
787.019531	11092.625000
785.234375	10934.911133
783.447266	11017.878906
781.658203	11074.235352
779.871094	10898.447266
778.082031	11041.481445
776.294922	11041.885742
774.505859	10983.598633
772.716797	11095.783203
770.925781	11052.873047
769.136719	11099.356445
767.345703	11254.721680
765.554688	11104.319336
763.763672	11159.132813
761.970703	11187.412109
760.179688	11215.676758
758.386719	11301.112305
756.593750	11145.281250
754.800781	11018.791992
753.005859	11070.760742
751.212891	11206.315430
749.417969	11176.022461
747.623047	11130.419922
745.828125	11089.014648
744.033203	11259.250977
742.236328	11260.985352
740.439453	11257.151367
738.642578	11272.796875
736.845703	11071.430664
735.048828	11205.323242
733.250000	11191.767578
731.451172	11203.241211
729.652344	11261.962891
727.853516	11101.110352
726.054688	11273.746094
724.253906	11206.018555
722.455078	11131.376953
720.654297	11199.765625
718.853516	11154.304688
717.050781	11249.024414
715.250000	11270.167969
713.447266	11172.007813
711.644531	11306.877930
709.841797	11215.683594
708.037109	11295.035156
706.234375	11177.548828
704.429688	11348.324219
702.625000	11182.389648
700.820313	11254.750977
699.013672	11375.545898
697.208984	11265.087891
695.402344	11212.810547
693.595703	11250.503906
691.789063	11400.246094
689.982422	11338.289063
688.173828	11268.059570
686.365234	11264.226563
684.556641	11263.159180
682.748047	11448.665039
680.939453	11448.937500
679.128906	11375.995117
677.318359	11419.096680
675.507813	11387.615234
673.697266	11383.756836
671.886719	11377.138672
670.074219	11562.331055
668.261719	11366.667969
666.449219	11339.366211
664.636719	11313.454102
662.824219	11470.921875
661.009766	11323.690430
659.195313	11279.881836
657.380859	11365.605469
655.566406	11345.222656
653.751953	11216.046875
651.935547	11433.911133
650.119141	11493.367188
648.302734	11449.574219
646.486328	11481.479492
644.669922	11239.602539
642.851563	11322.429688
641.033203	11365.340820
639.214844	11472.848633
637.396484	11356.262695
635.578125	11307.063477
633.757813	11502.442383
631.937500	11340.594727
630.117188	11383.441406
628.296875	11304.069336
626.474609	11389.458008
624.654297	11499.512695
622.832031	11358.419922
621.009766	11353.198242
619.185547	11312.318359
617.363281	11481.252930
615.539063	11510.278320
613.714844	11443.347656
611.890625	11392.888672
610.066406	11434.242188
608.242188	11420.788086
606.416016	11440.206055
604.589844	11330.916016
602.763672	11339.392578
600.937500	11375.235352
599.109375	11383.696289
597.281250	11394.889648
595.453125	11262.475586
593.625000	11309.239258
591.796875	11313.603516
589.966797	11313.865234
588.138672	11514.992188
586.308594	11412.747070
584.478516	11466.252930
582.646484	11476.036133
580.816406	11296.045898
578.984375	11678.492188
577.152344	11509.451172
575.320313	11511.027344
573.486328	11299.810547
571.654297	11385.983398
569.820313	11424.396484
567.986328	11306.029297
566.152344	11258.582031
564.316406	11411.451172
562.482422	11252.293945
560.646484	11351.979492
558.810547	11303.199219
556.974609	11277.582031
555.136719	11324.112305
553.300781	11346.126953
551.462891	11331.399414
549.625000	11349.321289
547.785156	11276.123047
545.947266	11396.015625
544.107422	11245.358398
542.267578	11181.741211
540.427734	11277.118164
538.587891	11220.311523
536.748047	11004.633789
534.906250	11124.423828
533.064453	11164.069336
531.222656	11116.834961
529.378906	11075.048828
527.537109	10980.372070
525.693359	11175.987305
523.849609	10983.695313
522.005859	10990.777344
520.162109	10871.801758
518.316406	11055.070313
516.470703	10876.518555
514.625000	10833.498047
512.779297	10984.149414
510.933594	10881.549805
509.085938	10869.686523
507.238281	10773.921875
505.390625	10787.794922
503.542969	10769.195313
501.695313	10742.487305
499.845703	10707.678711
497.996094	10826.995117
496.146484	10762.447266
494.296875	10853.321289
492.447266	10792.847656
490.595703	10768.867188
488.744141	10885.334961
486.892578	10633.181641
485.041016	10664.590820
483.187500	10834.981445
481.333984	10711.174805
479.480469	10673.750977
477.626953	10605.325195
475.773438	10659.623047
473.917969	10575.052734
472.064453	10584.858398
470.208984	10579.837891
468.351563	10568.082031
466.496094	10575.187500
464.638672	10552.664063
462.783203	10579.960938
460.925781	10618.012695
459.066406	10456.893555
457.208984	10538.004883
455.349609	10504.750977
453.490234	10378.724609
451.630859	10524.331055
449.771484	10454.807617
447.912109	10394.721680
446.050781	10530.821289
444.189453	10446.564453
442.328125	10444.265625
440.466797	10376.175781
438.603516	10314.828125
436.740234	10370.266602
434.876953	10272.716797
433.013672	10430.092773
431.150391	10253.440430
429.285156	10287.386719
427.419922	10259.649414
425.554688	10298.939453
423.689453	10202.870117
421.824219	10196.603516
419.957031	10180.962891
418.089844	9991.241211
416.222656	10134.972656
414.355469	10025.656250
412.488281	10050.211914
410.619141	10163.059570
408.750000	9965.522461
406.880859	9880.409180
405.011719	9938.398438
403.140625	9914.819336
401.269531	9859.173828
399.398438	10009.324219
397.527344	9741.275391
395.656250	9983.540039
393.783203	9881.190430
391.910156	9829.615234
390.037109	9728.677734
388.164063	9731.869141
386.291016	9835.117188
384.416016	9743.580078
382.541016	9788.103516
380.666016	9649.953125
378.791016	9761.122070
376.914063	9511.095703
375.039063	9632.904297
373.162109	9761.318359
371.285156	9463.511719
369.406250	9653.153320
367.529297	9465.987305
365.650391	9595.654297
363.771484	9449.831055
361.892578	9406.503906
360.011719	9332.605469
358.132813	9323.894531
356.251953	9349.751953
354.371094	9382.242188
352.490234	9249.944336
350.607422	9177.487305
348.724609	9248.511719
346.841797	9174.757813
344.958984	9140.865234
343.076172	9113.624023
341.193359	9245.641602
339.308594	9178.584961
337.423828	9201.757813
335.539063	9020.688477
333.652344	9138.022461
331.767578	8947.765625
329.880859	8925.906250
327.994141	9118.708008
326.107422	8890.163086
324.218750	9003.419922
322.330078	8906.089844
320.443359	8777.030273
318.552734	8820.086914
316.664063	8822.104492
314.775391	8720.928711
312.884766	8761.323242
310.994141	8710.455078
309.103516	8778.595703
307.210938	8637.863281
305.320313	8750.919922
303.427734	8573.261719
301.535156	8542.301758
299.642578	8535.125977
297.748047	8603.211914
295.853516	8421.781250
293.960938	8448.948242
292.064453	8437.839844
290.169922	8449.160156
288.275391	8319.357422
286.378906	8339.928711
284.482422	8345.989258
282.585938	8205.750000
280.687500	8128.821289
278.791016	8216.601563
276.892578	8197.656250
274.994141	8160.283691
273.095703	8112.394531
271.195313	8088.218750
269.294922	7985.096680
267.396484	8022.793457
265.494141	7900.000488
263.593750	7983.725586
261.691406	7917.529785
259.791016	7992.011230
257.888672	8062.517090
255.986328	7903.059570
254.082031	7885.541016
252.177734	7829.943848
250.275391	7824.265625
248.371094	7760.829590
246.464844	7814.227539
244.560547	7711.456543
242.654297	7897.337402
240.748047	7751.311035
238.841797	7653.865723
236.935547	7708.536621
235.027344	7580.997070
233.119141	7638.279297
231.210938	7639.201660
229.302734	7613.926270
227.392578	7491.757324
225.484375	7559.480469
223.574219	7513.295410
221.664063	7490.685547
219.751953	7321.549805
217.841797	7348.698730
215.929688	7438.607422
214.017578	7317.971680
212.105469	7254.905273
210.193359	7327.783691
208.279297	7228.157227
206.365234	7229.160645
204.451172	7164.862305
202.537109	7250.751465
200.621094	7059.847168
198.705078	7136.584473
196.789063	7204.152832
194.873047	7074.700195
192.957031	7024.865723
191.039063	7028.517090
189.123047	7004.788086
187.203125	7124.444824
185.285156	6989.938965
183.367188	6976.655762
181.447266	6951.655273
179.527344	6931.874512
177.607422	6768.886230
175.687500	6898.845703
173.765625	6843.951172
171.843750	6731.832520
169.921875	6721.226074
168.000000	6783.452148
166.078125	6627.212891
164.154297	6615.335449
162.230469	6578.769531
160.306641	6540.919922
158.382813	6618.703125
156.457031	6527.611328
154.531250	6517.065430
152.605469	6507.821777
150.679688	6529.731445
148.753906	6476.369629
146.826172	6537.195313
144.898438	6359.339355
142.970703	6422.756836
141.042969	6390.207520
139.113281	6358.968750
137.183594	6335.519043
135.253906	6268.028809
133.324219	6238.132324
131.394531	6112.418457
129.462891	6149.894043
127.531250	5995.777832
125.599609	5907.730957
123.667969	5863.713867
121.734375	5555.830078
119.802734	5510.616699
117.869141	5399.481934
115.935547	5107.419434
114.000000	4966.698242
112.066406	5070.248535
110.130859	4929.597656
108.195313	4893.623535
106.257813	4768.569824
104.322266	4860.451660
102.384766	4775.471191
100.447266	4671.172363
