#Wave		#Intensity
3501.405273	1926.880859
3500.167969	1991.514160
3498.929688	1922.479248
3497.691406	1897.888794
3496.453125	1974.240112
3495.213867	1953.685547
3493.975586	1906.906128
3492.736328	1936.809570
3491.497070	1928.376221
3490.256836	1954.230713
3489.017578	1855.060425
3487.777344	1989.782227
3486.537109	1874.517456
3485.296875	1866.103394
3484.055664	1958.434814
3482.814453	1859.356689
3481.573242	1883.175293
3480.332031	1828.450195
3479.089844	1914.678833
3477.848633	1866.006958
3476.606445	1899.868896
3475.363281	1925.669312
3474.121094	1889.093506
3472.877930	1963.160400
3471.634766	1890.392212
3470.391602	1920.195923
3469.147461	1949.988159
3467.904297	1879.273315
3466.660156	1955.281250
3465.416016	1850.436157
3464.170898	1836.025635
3462.926758	1865.805176
3461.681641	1929.709961
3460.436523	1957.452881
3459.190430	1961.098022
3457.945313	1912.562622
3456.699219	1910.195190
3455.453125	1929.895996
3454.206055	1965.635254
3452.959961	1899.086914
3451.712891	1936.823364
3450.465820	1914.406982
3449.218750	1940.100586
3447.970703	1865.591553
3446.722656	1875.256714
3445.474609	1876.905640
3444.226563	1904.589355
3442.978516	1934.264771
3441.729492	1841.809082
3440.480469	1831.453247
3439.231445	1917.159302
3437.981445	1856.772217
3436.731445	1878.426392
3435.481445	1940.073853
3434.231445	1871.717529
3432.981445	1919.347534
3431.730469	1851.020874
3430.479492	1936.609253
3429.228516	1886.288574
3427.977539	1907.907959
3426.725586	1953.488281
3425.473633	1881.225098
3424.221680	1783.032349
3422.969727	1874.525024
3421.716797	1780.362183
3420.463867	1923.704834
3419.210938	1805.626221
3417.958008	1911.008545
3416.704102	1888.708618
3415.450195	1868.411011
3414.196289	1882.013306
3412.942383	1895.610229
3411.687500	1845.429077
3410.433594	1865.005249
3409.178711	1868.636719
3407.922852	1838.406494
3406.667969	1959.533813
3405.412109	1845.674927
3404.156250	1809.494019
3402.900391	1727.550659
3401.643555	1856.566528
3400.386719	1824.382935
3399.129883	1857.852905
3397.873047	1821.703491
3396.616211	1769.660645
3395.358398	1824.989746
3394.100586	1848.495850
3392.842773	1913.725098
3391.583984	1865.677734
3390.326172	1859.364868
3389.067383	1823.262451
3387.808594	1844.760376
3386.548828	1882.133057
3385.289063	1766.646729
3384.030273	1754.404297
3382.769531	1857.252563
3381.509766	1807.303955
3380.249023	1850.598389
3378.988281	1796.703613
3377.727539	1822.138672
3376.466797	1833.687622
3375.205078	1813.520142
3373.943359	1866.679932
3372.681641	1789.057861
3371.419922	1764.948364
3370.157227	1705.199097
3368.894531	1764.279175
3367.631836	1803.539429
3366.369141	1694.332520
3365.105469	1880.035889
3363.842773	1810.427979
3362.578125	1810.084595
3361.314453	1803.807739
3360.050781	1756.005981
3358.786133	1832.780029
3357.521484	1783.014038
3356.255859	1820.226563
3354.991211	1748.745850
3353.725586	1815.584717
3352.459961	1757.958374
3351.194336	1773.423584
3349.927734	1751.367798
3348.661133	1715.501343
3347.394531	1778.335205
3346.127930	1819.438232
3344.860352	1728.335571
3343.593750	1800.994019
3342.326172	1804.596558
3341.057617	1749.041748
3339.790039	1709.279907
3338.521484	1768.088745
3337.252930	1832.787354
3335.984375	1798.942993
3334.714844	1832.091187
3333.446289	1727.353516
3332.176758	1717.179199
3330.906250	1854.673706
3329.636719	1838.573364
3328.366211	1816.574707
3327.095703	1778.842407
3325.825195	1693.907349
3324.554688	1760.463379
3323.283203	1736.529297
3322.011719	1757.828003
3320.740234	1767.323242
3319.467773	1759.125366
3318.195313	1707.697510
3316.922852	1754.526978
3315.650391	1785.623535
3314.377930	1779.391968
3313.104492	1810.471802
3311.831055	1757.119507
3310.557617	1719.490356
3309.283203	1719.163330
3308.009766	1722.760620
3306.735352	1759.706543
3305.460938	1771.140259
3304.185547	1666.869019
3302.911133	1707.725586
3301.635742	1734.844482
3300.359375	1767.832764
3299.083984	1742.022461
3297.807617	1722.099365
3296.531250	1794.246704
3295.254883	1707.734985
3293.978516	1691.745728
3292.701172	1716.873291
3291.423828	1693.058960
3290.146484	1680.995117
3288.869141	1721.762573
3287.590820	1752.733521
3286.312500	1719.151123
3285.034180	1754.021484
3283.754883	1696.990723
3282.476563	1682.984741
3281.197266	1796.014404
3279.917969	1744.869751
3278.637695	1754.305176
3277.357422	1740.298584
3276.078125	1753.636841
3274.796875	1720.110962
3273.516602	1682.693726
3272.235352	1655.049072
3270.954102	1674.247070
3269.672852	1679.780884
3268.391602	1667.757080
3267.109375	1735.697021
3265.827148	1641.773315
3264.544922	1756.479492
3263.262695	1752.246460
3261.979492	1716.835083
3260.696289	1743.784912
3259.413086	1755.140259
3258.128906	1626.262695
3256.845703	1795.363159
3255.561523	1629.536133
3254.277344	1658.422852
3252.992188	1804.066650
3251.707031	1686.976685
3250.422852	1758.634399
3249.136719	1664.937744
3247.851563	1732.682861
3246.565430	1699.299438
3245.279297	1689.255615
3243.993164	1638.401367
3242.707031	1653.633911
3241.419922	1703.830933
3240.132813	1653.002686
3238.845703	1664.339478
3237.557617	1673.730225
3236.270508	1665.645386
3234.982422	1669.209229
3233.694336	1624.257324
3232.405273	1701.555176
3231.116211	1635.276001
3229.827148	1710.602661
3228.538086	1657.920532
3227.249023	1613.013306
3225.958984	1707.684204
3224.668945	1649.218628
3223.378906	1629.527466
3222.087891	1671.835327
3220.797852	1677.326538
3219.506836	1630.530029
3218.215820	1649.579712
3216.923828	1672.493530
3215.631836	1720.558472
3214.339844	1712.489624
3213.047852	1574.802368
3211.755859	1516.473022
3210.462891	1696.036377
3209.169922	1664.775513
3207.876953	1664.457153
3206.583008	1639.012573
3205.289063	1719.861084
3203.995117	1698.279541
3202.701172	1568.531494
3201.407227	1674.454102
3200.112305	1672.202881
3198.817383	1588.868042
3197.521484	1654.191162
3196.226563	1572.821411
3194.930664	1555.155151
3193.634766	1637.809082
3192.338867	1733.932373
3191.041992	1606.328369
3189.745117	1706.276733
3188.448242	1653.904175
3187.151367	1672.860229
3185.854492	1641.709717
3184.556641	1652.954590
3183.258789	1656.490479
3181.959961	1623.434937
3180.662109	1675.110229
3179.363281	1545.811401
3178.064453	1684.092163
3176.764648	1683.769653
3175.465820	1554.543213
3174.166016	1661.965332
3172.866211	1634.722168
3171.565430	1559.418457
3170.265625	1674.467651
3168.964844	1610.717651
3167.664063	1598.878540
3166.362305	1665.819824
3165.061523	1582.897949
3163.759766	1592.197632
3162.458008	1636.058350
3161.155273	1629.985107
3159.853516	1614.316528
3158.550781	1594.815552
3157.248047	1540.783813
3155.944336	1548.161987
3154.640625	1622.669067
3153.337891	1605.098755
3152.033203	1553.023560
3150.729492	1600.649292
3149.424805	1544.761597
3148.120117	1509.973511
3146.815430	1569.074951
3145.509766	1532.379883
3144.205078	1524.425537
3142.899414	1704.118652
3141.592773	1587.014893
3140.287109	1632.646484
3138.980469	1634.246826
3137.673828	1566.968750
3136.367188	1566.667969
3135.059570	1528.116577
3133.752930	1527.823242
3132.445313	1529.441650
3131.136719	1544.439575
3129.829102	1456.233887
3128.520508	1515.186035
3127.211914	1522.536377
3125.902344	1600.552734
3124.593750	1493.307739
3123.284180	1533.114746
3121.974609	1529.002563
3120.664063	1543.976929
3119.354492	1515.058228
3118.043945	1598.708984
3116.733398	1558.346436
3115.421875	1542.790771
3114.111328	1491.014282
3112.799805	1492.634033
3111.488281	1576.208252
3110.175781	1492.060303
3108.864258	1573.697266
3107.551758	1512.440063
3106.238281	1542.620728
3104.925781	1536.611938
3103.612305	1507.760376
3102.298828	1558.861572
3100.985352	1514.792725
3099.671875	1489.767090
3098.357422	1498.991943
3097.042969	1456.861694
3095.727539	1471.793823
3094.413086	1534.249512
3093.097656	1514.946289
3091.782227	1529.858398
3090.466797	1510.563232
3089.150391	1491.275513
3087.833984	1523.277466
3086.517578	1475.509766
3085.201172	1532.184326
3083.883789	1552.770264
3082.566406	1539.186157
3081.249023	1540.787354
3079.931641	1502.547607
3078.613281	1416.902832
3077.294922	1570.240479
3075.976563	1429.629639
3074.658203	1508.973633
3073.338867	1480.253052
3072.019531	1474.283081
3070.700195	1441.791016
3069.379883	1496.446167
3068.060547	1458.280518
3066.740234	1543.207275
3065.418945	1400.924438
3064.098633	1470.687256
3062.777344	1498.790039
3061.456055	1430.387573
3060.134766	1537.937866
3058.812500	1397.683960
3057.491211	1473.052734
3056.167969	1482.221802
3054.845703	1493.277466
3053.523438	1458.972046
3052.200195	1485.143799
3050.876953	1458.409546
3049.552734	1518.568970
3048.229492	1410.637207
3046.905273	1459.454224
3045.580078	1449.734375
3044.255859	1549.482178
3042.930664	1437.853516
3041.605469	1518.699219
3040.280273	1467.478394
3038.955078	1450.222534
3037.628906	1376.408569
3036.302734	1408.190186
3034.976563	1472.000488
3033.649414	1516.942017
3032.322266	1414.911377
3030.995117	1427.823975
3029.667969	1399.298706
3028.339844	1429.155762
3027.012695	1408.171509
3025.684570	1541.537231
3024.355469	1501.720581
3023.027344	1514.601196
3021.698242	1461.637085
3020.369141	1455.712524
3019.039063	1468.594238
3017.708984	1556.672485
3016.378906	1481.184814
3015.048828	1533.519409
3013.718750	1505.038940
3012.387695	1425.847534
3011.056641	1434.963257
3009.725586	1530.456909
3008.393555	1486.978638
3007.062500	1379.694580
3005.730469	1433.854370
3004.397461	1412.936768
3003.065430	1433.300171
3001.732422	1453.655762
3000.399414	1492.756470
2999.065430	1438.094116
2997.732422	1404.073364
2996.398438	1396.304932
2995.064453	1500.971802
2993.729492	1466.958374
2992.395508	1397.368164
2991.060547	1458.899902
2989.724609	1413.679565
2988.389648	1419.022217
2987.053711	1474.898804
2985.717773	1543.852905
2984.381836	1521.102539
2983.044922	1517.067017
2981.708984	1438.222900
2980.372070	1467.862793
2979.034180	1394.667236
2977.697266	1420.565552
2976.359375	1483.829956
2975.021484	1416.278809
2973.682617	1490.727905
2972.344727	1454.952637
2971.005859	1411.721802
2969.666016	1450.655396
2968.327148	1469.040771
2966.987305	1354.913696
2965.647461	1393.835449
2964.307617	1479.380859
2962.967773	1393.295654
2961.626953	1430.322266
2960.286133	1430.045166
2958.944336	1493.147705
2957.603516	1444.401123
2956.261719	1477.662109
2954.919922	1518.362305
2953.577148	1426.797729
2952.235352	1400.449097
2950.892578	1413.211182
2949.549805	1489.261963
2948.206055	1496.418213
2946.863281	1533.345215
2945.519531	1490.256592
2944.174805	1501.128418
2942.831055	1580.807617
2941.486328	1641.861816
2940.141602	1686.160645
2938.796875	1615.203369
2937.451172	1635.331787
2936.105469	1737.203003
2934.759766	1762.872559
2933.414063	1810.819092
2932.067383	1747.333618
2930.720703	1836.108032
2929.374023	1822.758545
2928.027344	1805.702637
2926.679688	1707.013428
2925.332031	1810.567139
2923.984375	1676.675171
2922.635742	1720.854614
2921.287109	1564.783813
2919.938477	1614.528564
2918.589844	1532.670410
2917.240234	1547.196289
2915.890625	1558.011353
2914.541016	1474.359375
2913.191406	1505.554443
2911.840820	1458.974854
2910.490234	1454.989258
2909.139648	1454.706665
2907.789063	1472.928223
2906.437500	1417.140503
2905.085938	1463.107544
2903.734375	1440.631226
2902.381836	1331.261841
2901.029297	1416.039429
2899.676758	1373.254395
2898.324219	1402.553833
2896.970703	1385.653442
2895.617188	1413.091797
2894.263672	1447.906616
2892.910156	1416.235352
2891.555664	1439.959351
2890.201172	1498.743164
2888.846680	1385.883301
2887.491211	1354.248413
2886.135742	1381.655029
2884.780273	1361.098999
2883.424805	1344.238770
2882.068359	1343.977295
2880.712891	1446.936768
2879.355469	1391.369141
2877.999023	1354.248169
2876.641602	1318.983765
2875.284180	1381.348145
2873.926758	1346.092041
2872.569336	1377.128540
2871.210938	1362.134644
2869.852539	1365.550293
2868.494141	1315.604370
2867.134766	1324.546509
2865.775391	1373.949463
2864.416016	1364.487305
2863.056641	1292.517334
2861.696289	1352.926758
2860.335938	1387.582642
2858.975586	1337.699829
2857.614258	1317.230835
2856.253906	1388.608765
2854.892578	1344.264160
2853.530273	1334.821899
2852.168945	1352.918945
2850.806641	1275.570557
2849.444336	1304.682007
2848.082031	1375.978638
2846.718750	1383.047607
2845.355469	1313.088989
2843.992188	1353.171509
2842.627930	1338.242188
2841.264648	1348.978394
2839.900391	1321.228027
2838.535156	1275.166992
2837.170898	1284.077393
2835.805664	1283.827026
2834.440430	1303.718384
2833.075195	1374.861694
2831.708984	1279.415405
2830.342773	1374.325562
2828.976563	1273.427368
2827.609375	1344.520996
2826.243164	1353.403320
2824.875977	1440.910522
2823.507813	1356.531738
2822.140625	1317.882080
2820.772461	1282.902466
2819.404297	1288.133545
2818.035156	1375.567749
2816.666992	1320.506470
2815.297852	1298.335938
2813.928711	1265.219604
2812.558594	1310.606567
2811.189453	1337.725708
2809.819336	1390.379272
2808.448242	1302.541870
2807.078125	1353.357666
2805.707031	1333.034058
2804.335938	1268.961060
2802.963867	1294.233276
2801.592773	1350.478271
2800.220703	1302.838501
2798.848633	1348.128906
2797.475586	1377.008545
2796.102539	1256.547974
2794.729492	1267.226807
2793.356445	1257.877319
2791.982422	1263.091553
2790.609375	1308.336182
2789.234375	1260.778564
2787.860352	1251.437378
2786.485352	1347.578247
2785.110352	1352.769531
2783.735352	1299.786377
2782.360352	1308.619873
2780.984375	1301.095337
2779.608398	1344.444458
2778.231445	1287.871216
2776.855469	1356.631470
2775.478516	1310.972290
2774.101563	1290.746460
2772.723633	1330.424927
2771.346680	1353.755615
2769.968750	1320.832764
2768.589844	1244.387329
2767.211914	1285.857056
2765.833008	1252.966675
2764.454102	1283.541016
2763.075195	1323.166016
2761.695313	1275.789795
2760.315430	1302.717773
2758.935547	1253.552490
2757.554688	1296.774292
2756.174805	1363.519409
2754.793945	1303.508301
2753.412109	1294.202637
2752.031250	1319.285278
2750.649414	1299.123901
2749.267578	1282.588379
2747.884766	1318.510254
2746.502930	1254.961426
2745.120117	1176.973877
2743.736328	1323.158325
2742.353516	1328.320801
2740.969727	1259.398804
2739.585938	1268.184692
2738.202148	1284.191772
2736.817383	1206.289673
2735.432617	1265.633789
2734.047852	1276.216309
2732.662109	1277.770996
2731.277344	1252.258789
2729.891602	1280.878052
2728.504883	1289.645508
2727.119141	1318.246094
2725.732422	1253.079834
2724.345703	1296.097412
2722.958008	1274.215820
2721.571289	1281.173584
2720.183594	1309.747559
2718.794922	1302.285767
2717.407227	1320.038940
2716.018555	1182.940552
2714.629883	1332.122192
2713.241211	1306.663452
2711.851563	1209.236206
2710.461914	1304.351440
2709.072266	1271.717896
2707.681641	1399.154663
2706.291016	1337.746460
2704.900391	1281.755371
2703.509766	1263.530273
2702.119141	1286.643066
2700.727539	1268.424072
2699.334961	1246.619629
2697.943359	1232.007324
2696.550781	1321.544189
2695.158203	1296.151489
2693.765625	1281.537964
2692.372070	1257.957397
2690.979492	1263.092773
2689.584961	1261.050781
2688.191406	1251.835815
2686.796875	1321.520996
2685.402344	1240.587280
2684.007813	1283.361206
2682.613281	1283.108887
2681.217773	1202.230225
2679.822266	1241.403564
2678.425781	1319.963257
2677.030273	1228.380981
2675.633789	1206.656006
2674.237305	1235.057739
2672.839844	1309.977539
2671.442383	1302.562988
2670.044922	1250.429199
2668.647461	1271.645630
2667.249023	1207.021118
2665.850586	1312.265503
2664.452148	1244.083252
2663.053711	1154.482300
2661.654297	1268.608521
2660.254883	1288.009521
2658.855469	1277.039673
2657.455078	1242.859741
2656.054688	1256.898071
2654.654297	1206.670166
2653.252930	1276.034546
2651.852539	1250.802979
2650.451172	1261.260498
2649.048828	1209.287476
2647.647461	1292.862549
2646.245117	1215.942993
2644.842773	1224.616333
2643.439453	1247.543823
2642.037109	1231.261353
2640.633789	1247.052368
2639.229492	1202.277954
2637.826172	1198.479492
2636.421875	1287.265869
2635.017578	1237.169434
2633.613281	1274.300415
2632.208008	1259.814087
2630.802734	1270.240112
2629.397461	1264.653687
2627.991211	1212.832397
2626.584961	1219.705322
2625.178711	1226.575439
2623.772461	1205.006104
2622.365234	1231.422729
2620.958008	1216.967163
2619.550781	1200.740967
2618.142578	1212.935425
2616.735352	1289.044556
2615.326172	1189.379517
2613.917969	1213.992676
2612.508789	1306.026855
2611.099609	1179.805054
2609.690430	1268.261963
2608.281250	1275.105469
2606.871094	1264.215332
2605.460938	1155.828491
2604.049805	1270.806030
2602.639648	1199.673462
2601.228516	1234.870605
2599.817383	1231.084106
2598.405273	1236.154053
2596.993164	1257.157715
2595.581055	1279.923340
2594.168945	1175.243896
2592.755859	1281.187622
2591.342773	1171.241333
2589.929688	1229.383545
2588.516602	1268.048828
2587.102539	1244.811768
2585.688477	1198.601807
2584.273438	1208.969971
2582.859375	1233.471313
2581.444336	1337.468872
2580.028320	1236.516846
2578.613281	1260.997925
2577.197266	1198.947266
2575.781250	1246.376343
2574.365234	1209.063721
2572.948242	1217.648315
2571.531250	1162.712524
2570.114258	1241.863037
2568.696289	1238.090210
2567.278320	1169.076172
2565.860352	1207.630249
2564.442383	1186.240112
2563.023438	1191.292236
2561.604492	1342.581543
2560.185547	1241.906616
2558.766602	1225.809937
2557.346680	1281.915405
2555.926758	1232.367065
2554.505859	1119.471924
2553.084961	1193.163208
2551.665039	1222.838257
2550.243164	1219.078003
2548.822266	1245.218506
2547.400391	1204.527954
2545.978516	1242.967529
2544.555664	1197.020264
2543.133789	1217.871948
2541.710938	1256.285767
2540.287109	1210.362915
2538.864258	1225.930420
2537.440430	1194.079590
2536.016602	1225.444824
2534.591797	1218.180908
2533.167969	1196.880127
2531.743164	1224.716797
2530.317383	1259.559448
2528.892578	1185.645508
2527.466797	1178.396362
2526.041016	1178.162842
2524.614258	1174.423584
2523.187500	1272.332153
2521.760742	1287.849609
2520.333984	1261.316895
2518.906250	1255.812500
2517.479492	1166.255615
2516.050781	1218.548096
2514.623047	1192.049805
2513.194336	1268.817627
2511.765625	1228.321777
2510.336914	1215.832397
2508.907227	1210.344116
2507.477539	1119.171387
2506.047852	1150.419922
2504.617188	1169.419800
2503.186523	1226.860718
2501.755859	1200.407593
2500.325195	1154.748169
2498.893555	1285.515869
2497.461914	1201.439453
2496.030273	1262.308594
2494.597656	1218.418457
2493.166016	1258.317017
2491.732422	1148.139038
2490.299805	1181.057495
2488.866211	1250.591064
2487.432617	1245.111206
2485.999023	1265.786011
2484.564453	1188.835571
2483.130859	1235.655518
2481.695313	1162.226440
2480.260742	1184.643188
2478.825195	1212.276245
2477.389648	1199.845459
2475.954102	1192.642700
2474.517578	1174.998413
2473.081055	1192.168823
2471.644531	1256.313721
2470.207031	1212.571533
2468.770508	1200.155029
2467.332031	1231.218628
2465.894531	1227.496582
2464.456055	1201.177856
2463.017578	1181.821289
2461.579102	1139.883301
2460.140625	1216.097046
2458.701172	1250.593994
2457.261719	1201.720825
2455.821289	1211.899292
2454.380859	1171.732544
2452.940430	1225.301636
2451.500000	1240.674805
2450.058594	1203.995850
2448.617188	1207.225342
2447.175781	1189.643433
2445.734375	1210.212646
2444.291992	1204.771362
2442.849609	1188.933350
2441.407227	1195.627930
2439.963867	1230.038940
2438.520508	1146.653076
2437.077148	1213.963501
2435.632813	1161.779297
2434.188477	1206.555908
2432.744141	1216.699951
2431.299805	1232.031128
2429.854492	1204.105225
2428.409180	1198.676270
2426.963867	1151.745239
2425.517578	1225.862915
2424.071289	1218.704102
2422.625000	1284.137207
2421.177734	1226.858398
2419.730469	1217.975830
2418.283203	1184.914795
2416.835938	1170.863159
2415.387695	1153.363892
2413.939453	1194.563965
2412.491211	1173.615112
2411.041992	1185.460083
2409.593750	1169.696777
2408.143555	1178.087891
2406.693359	1279.600220
2405.244141	1189.687500
2403.794922	1194.621826
2402.343750	1232.300537
2400.892578	1199.314819
2399.441406	1212.858032
2397.990234	1176.444336
2396.539063	1241.650269
2395.085938	1098.494995
2393.634766	1285.912231
2392.181641	1185.832397
2390.728516	1207.965454
2389.275391	1226.648804
2387.822266	1173.082153
2386.369141	1241.636719
2384.914063	1225.914551
2383.460938	1222.231689
2382.005859	1215.113037
2380.550781	1118.643066
2379.095703	1135.599731
2377.640625	1233.279541
2376.183594	1184.948364
2374.728516	1229.353027
2373.271484	1206.791382
2371.814453	1155.061646
2370.357422	1238.912231
2368.900391	1154.600220
2367.443359	1264.146118
2365.986328	1209.016235
2364.527344	1179.626953
2363.068359	1263.388550
2361.611328	1251.138794
2360.152344	1108.664429
2358.693359	1207.808716
2357.232422	1192.151489
2355.773438	1212.463379
2354.312500	1234.479248
2352.851563	1162.335449
2351.392578	1203.178833
2349.931641	1197.804810
2348.468750	1230.070557
2347.007813	1228.114136
2345.546875	1178.274902
2344.083984	1178.039185
2342.621094	1200.026245
2341.158203	1225.422729
2339.695313	1208.089966
2338.232422	1163.429443
2336.769531	1178.569336
2335.304688	1191.995361
2333.839844	1244.685791
2332.375000	1218.830933
2330.910156	1235.654053
2329.445313	1233.700317
2327.980469	1226.629272
2326.515625	1250.263184
2325.048828	1306.289063
2323.582031	1207.137695
2322.115234	1154.051636
2320.648438	1150.411865
2319.181641	1165.517212
2317.714844	1122.692993
2316.246094	1173.566772
2314.779297	1203.984741
2313.310547	1186.717529
2311.841797	1154.136597
2310.373047	1203.261230
2308.904297	1204.721680
2307.433594	1168.754150
2305.964844	1260.368652
2304.494141	1147.878906
2303.023438	1178.252808
2301.552734	1191.615723
2300.082031	1201.573975
2298.611328	1179.243530
2297.138672	1177.308228
2295.667969	1192.358765
2294.195313	1108.909058
2292.722656	1134.154175
2291.250000	1195.036499
2289.777344	1150.670776
2288.302734	1169.104858
2286.830078	1148.512695
2285.355469	1144.890015
2283.880859	1142.964478
2282.408203	1132.562378
2280.931641	1161.151978
2279.457031	1189.730103
2277.982422	1136.963989
2276.505859	1167.229370
2275.029297	1155.138794
2273.554688	1148.133301
2272.078125	1220.704834
2270.599609	1189.990601
2269.123047	1193.136353
2267.646484	1115.062378
2266.167969	1155.439575
2264.689453	1161.972900
2263.210938	1225.998779
2261.732422	1168.268921
2260.253906	1259.313354
2258.775391	1233.710083
2257.294922	1197.979126
2255.814453	1162.262329
2254.333984	1141.760864
2252.853516	1149.974609
2251.373047	1132.860352
2249.892578	1181.583984
2248.412109	1144.218506
2246.929688	1137.239258
2245.447266	1189.306274
2243.964844	1114.855957
2242.482422	1236.043945
2241.000000	1153.184204
2239.517578	1169.808350
2238.033203	1177.999390
2236.548828	1191.241821
2235.066406	1125.303345
2233.582031	1216.026367
2232.095703	1244.408203
2230.611328	1213.853516
2229.126953	1223.708618
2227.640625	1198.218994
2226.154297	1149.183838
2224.667969	1140.541504
2223.181641	1242.906372
2221.695313	1203.980835
2220.208984	1161.708496
2218.720703	1142.985107
2217.234375	1181.406982
2215.746094	1196.290771
2214.257813	1207.808838
2212.769531	1195.808960
2211.279297	1165.343140
2209.791016	1156.714233
2208.300781	1196.765137
2206.812500	1184.776855
2205.322266	1179.504761
2203.832031	1142.362671
2202.341797	1220.958008
2200.849609	1180.468750
2199.359375	1180.230835
2197.867188	1171.612305
2196.375000	1226.677246
2194.882813	1182.868286
2193.390625	1165.878662
2191.898438	1271.154419
2190.404297	1193.874023
2188.912109	1156.803101
2187.417969	1146.527222
2185.923828	1152.989746
2184.429688	1202.949829
2182.935547	1167.579468
2181.439453	1145.602539
2179.945313	1210.582397
2178.449219	1222.040405
2176.953125	1188.365845
2175.458984	1246.613281
2173.960938	1169.508301
2172.464844	1152.568359
2170.968750	1172.376343
2169.470703	1163.791138
2167.972656	1218.645752
2166.474609	1161.652344
2164.976563	1208.141479
2163.478516	1174.530273
2161.980469	1192.641479
2160.480469	1147.372925
2158.982422	1198.829224
2157.482422	1233.594604
2155.982422	1166.678101
2154.482422	1184.772217
2152.980469	1144.548706
2151.480469	1174.299561
2149.978516	1184.054321
2148.476563	1157.175049
2146.974609	1220.198486
2145.472656	1131.742554
2143.970703	1218.041382
2142.468750	1189.513062
2140.964844	1172.639404
2139.462891	1243.910645
2137.958984	1245.321777
2136.455078	1223.459961
2134.949219	1201.606934
2133.445313	1201.363892
2131.941406	1201.120972
2130.435547	1185.929443
2128.929688	1185.689575
2127.423828	1138.961426
2125.917969	1163.630493
2124.412109	1287.866699
2122.906250	1181.411865
2121.398438	1174.536987
2119.890625	1238.985229
2118.382813	1213.860352
2116.875000	1193.719360
2115.367188	1171.928833
2113.859375	1224.724365
2112.349609	1191.337646
2110.841797	1189.439941
2109.332031	1157.730103
2107.822266	1193.926147
2106.312500	1218.518311
2104.800781	1165.303223
2103.291016	1145.208130
2101.779297	1234.323975
2100.269531	1119.930420
2098.757813	1204.053467
2097.246094	1182.312866
2095.732422	1180.420166
2094.220703	1198.363037
2092.707031	1206.383057
2091.195313	1164.832520
2089.681641	1210.849854
2088.167969	1166.011963
2086.654297	1203.754150
2085.138672	1150.681152
2083.625000	1155.399536
2082.109375	1204.672363
2080.593750	1229.176636
2079.078125	1190.987427
2077.562500	1152.813477
2076.046875	1144.335205
2074.531250	1206.748535
2073.013672	1239.468384
2071.496094	1204.611206
2069.978516	1191.186279
2068.460938	1210.711304
2066.943359	1141.296143
2065.425781	1223.392456
2063.906250	1190.219727
2062.386719	1183.394653
2060.869141	1197.964478
2059.349609	1261.884888
2057.828125	1218.861694
2056.308594	1274.529053
2054.789063	1190.415161
2053.267578	1183.597900
2051.746094	1178.426880
2050.224609	1270.207764
2048.703125	1292.950195
2047.181641	1256.551514
2045.658203	1185.680908
2044.136719	1190.365723
2042.613281	1201.614746
2041.089844	1201.370605
2039.566406	1183.076782
2038.042969	1284.550415
2036.517578	1189.156860
2034.994141	1208.593750
2033.468750	1237.859985
2031.943359	1265.475098
2030.417969	1173.440308
2028.892578	1178.117432
2027.367188	1205.727661
2025.839844	1212.033936
2024.314453	1133.185059
2022.787109	1201.717773
2021.259766	1199.836548
2019.732422	1196.319336
2018.203125	1276.250732
2016.675781	1236.729858
2015.146484	1220.122681
2013.619141	1242.767578
2012.089844	1177.119141
2010.560547	1281.491211
2009.029297	1274.693481
2007.500000	1240.122437
2005.968750	1226.801514
2004.439453	1215.119263
2002.908203	1255.694214
2001.376953	1232.582642
1999.843750	1242.125122
1998.312500	1210.866211
1996.781250	1215.514282
1995.248047	1256.047485
1993.714844	1203.602905
1992.181641	1265.319336
1990.648438	1222.675537
1989.115234	1165.379883
1987.580078	1246.620972
1986.044922	1293.614868
1984.511719	1259.144165
1982.976563	1211.659058
1981.441406	1240.720459
1979.904297	1225.816406
1978.369141	1251.607788
1976.832031	1267.625122
1975.294922	1221.813110
1973.759766	1245.962769
1972.220703	1213.183716
1970.683594	1227.569580
1969.146484	1201.309814
1967.607422	1231.944702
1966.068359	1205.694702
1964.531250	1265.558716
1962.992188	1198.705811
1961.451172	1206.580933
1959.912109	1233.935913
1958.371094	1175.246460
1956.832031	1286.989380
1955.291016	1229.935547
1953.750000	1234.551392
1952.208984	1244.031006
1950.666016	1221.074585
1949.125000	1162.459106
1947.582031	1238.406494
1946.039063	1233.291748
1944.496094	1179.570435
1942.953125	1219.828491
1941.410156	1227.677612
1939.865234	1246.858398
1938.322266	1209.367554
1936.777344	1262.535522
1935.232422	1236.384766
1933.687500	1231.278198
1932.142578	1290.879395
1930.595703	1276.059814
1929.050781	1224.055664
1927.503906	1152.672852
1925.957031	1210.624878
1924.410156	1203.913452
1922.863281	1234.364990
1921.314453	1206.651978
1919.767578	1283.925293
1918.218750	1228.764038
1916.669922	1244.656128
1915.121094	1312.190063
1913.572266	1215.100952
1912.021484	1213.239136
1910.472656	1253.316406
1908.921875	1249.834717
1907.371094	1228.618286
1905.820313	1254.159424
1904.269531	1216.833740
1902.718750	1218.196167
1901.166016	1280.777466
1899.615234	1182.261963
1898.062500	1243.214478
1896.509766	1217.199219
1894.957031	1287.777832
1893.402344	1252.107544
1891.849609	1232.542480
1890.294922	1288.595825
1888.740234	1217.562134
1887.185547	1207.664429
1885.630859	1284.588867
1884.076172	1237.710693
1882.519531	1222.993408
1880.964844	1250.057739
1879.408203	1230.524536
1877.851563	1288.092041
1876.294922	1279.799194
1874.736328	1268.298950
1873.179688	1218.280518
1871.621094	1197.168579
1870.064453	1306.026245
1868.505859	1272.071899
1866.947266	1263.792114
1865.386719	1269.946899
1863.828125	1272.892822
1862.267578	1275.837402
1860.708984	1265.960938
1859.148438	1268.905640
1857.587891	1228.599731
1856.025391	1245.964233
1854.464844	1253.714478
1852.902344	1253.457275
1851.341797	1294.813477
1849.779297	1284.946777
1848.216797	1199.890747
1846.652344	1249.229858
1845.089844	1365.714966
1843.525391	1255.112671
1841.962891	1226.081299
1840.398438	1275.374268
1838.833984	1284.699707
1837.267578	1298.813965
1835.703125	1253.824951
1834.136719	1279.117920
1832.572266	1282.048340
1831.005859	1256.245117
1829.439453	1318.227905
1827.873047	1230.199707
1826.304688	1277.804932
1824.738281	1304.656250
1823.169922	1259.739258
1821.601563	1270.640381
1820.033203	1275.161133
1818.464844	1268.524658
1816.896484	1263.484009
1815.326172	1274.375122
1813.755859	1235.889771
1812.185547	1272.258911
1810.615234	1322.941040
1809.044922	1263.777588
1807.474609	1273.065796
1805.902344	1269.621948
1804.332031	1205.733765
1802.759766	1265.919067
1801.187500	1305.409302
1799.615234	1336.934692
1798.041016	1190.437744
1796.468750	1299.836792
1794.894531	1313.867798
1793.320313	1326.304565
1791.746094	1218.043457
1790.171875	1282.889893
1788.597656	1260.402100
1787.021484	1293.471436
1785.445313	1286.858154
1783.871094	1239.000366
1782.294922	1267.295166
1780.716797	1273.377319
1779.140625	1292.140503
1777.564453	1309.310791
1775.986328	1236.140503
1774.408203	1254.899536
1772.830078	1279.987427
1771.251953	1305.064819
1769.673828	1255.707764
1768.093750	1323.525024
1766.513672	1253.607544
1764.935547	1286.581909
1763.355469	1302.138672
1761.773438	1270.233154
1760.193359	1349.047974
1758.613281	1279.196777
1757.031250	1259.962524
1755.449219	1261.283325
1753.867188	1313.170898
1752.285156	1243.384399
1750.701172	1249.446289
1749.119141	1280.773682
1747.535156	1285.246338
1745.951172	1248.673340
1744.367188	1275.246460
1742.783203	1325.477783
1741.199219	1255.788940
1739.613281	1228.715698
1738.029297	1242.654907
1736.443359	1281.814697
1734.857422	1314.652954
1733.271484	1304.925659
1731.683594	1665.485107
1730.097656	9292.969727
1728.509766	2301.106201
1726.921875	1292.825562
1725.333984	1273.666260
1723.746094	1229.329956
1722.158203	1301.467285
1720.568359	1305.918579
1718.978516	1294.637451
1717.390625	1272.351563
1715.800781	1320.833740
1714.208984	1301.695801
1712.619141	1280.993774
1711.027344	1334.158325
1709.437500	1337.024902
1707.845703	1347.744141
1706.253906	1366.311279
1704.662109	1367.598999
1703.068359	1339.059448
1701.476563	1302.684204
1699.882813	1316.537476
1698.289063	1357.055420
1696.695313	1378.734131
1695.101563	1340.812134
1693.505859	1396.978516
1691.912109	1390.419312
1690.316406	1314.904785
1688.720703	1325.601074
1687.125000	1378.590576
1685.529297	1315.655151
1683.933594	1392.113647
1682.335938	1293.192261
1680.738281	1280.402344
1679.140625	1358.385376
1677.542969	1261.096802
1675.945313	1360.951782
1674.347656	1320.006348
1672.748047	1235.295166
1671.148438	1269.432861
1669.548828	1314.497559
1667.949219	1303.286499
1666.349609	1296.767090
1664.748047	1319.929199
1663.148438	1307.162109
1661.546875	1352.171875
1659.945313	1344.086426
1658.343750	1326.639648
1656.742188	1277.991455
1655.138672	1322.969727
1653.537109	1339.853149
1651.933594	1327.099854
1650.330078	1251.986206
1648.726563	1295.373535
1647.121094	1320.040771
1645.517578	1296.394653
1643.912109	1293.010254
1642.306641	1331.680054
1640.701172	1348.533203
1639.095703	1349.810425
1637.490234	1365.095947
1635.884766	1349.250488
1634.277344	1344.302979
1632.669922	1362.691040
1631.062500	1314.195313
1629.455078	1340.356567
1627.845703	1313.650024
1626.238281	1344.463257
1624.628906	1347.292114
1623.019531	1306.617676
1621.410156	1326.539673
1619.800781	1335.582397
1618.191406	1329.094360
1616.580078	1344.342041
1614.968750	1334.750732
1613.359375	1331.370117
1611.746094	1238.010132
1610.134766	1380.451416
1608.523438	1304.178101
1606.910156	1386.079712
1605.298828	1384.241699
1603.685547	1332.811279
1602.070313	1351.127930
1600.457031	1329.159302
1598.843750	1339.724731
1597.228516	1317.767456
1595.613281	1346.908813
1593.998047	1355.916016
1592.382813	1335.516235
1590.767578	1358.446655
1589.152344	1297.835815
1587.535156	1356.335327
1585.917969	1271.010010
1584.300781	1372.776367
1582.683594	1319.940552
1581.066406	1287.215210
1579.447266	1344.110840
1577.828125	1314.483154
1576.210938	1292.589355
1574.591797	1349.448120
1572.970703	1369.234985
1571.351563	1355.059937
1569.730469	1325.460449
1568.111328	1298.958618
1566.490234	1284.806763
1564.869141	1282.997314
1563.248047	1290.438843
1561.625000	1351.827148
1560.003906	1323.805786
1558.380859	1305.040771
1556.757813	1377.170654
1555.134766	1295.256470
1553.511719	1350.420166
1551.886719	1404.021240
1550.263672	1320.613281
1548.638672	1329.571289
1547.013672	1318.524536
1545.388672	1349.014038
1543.761719	1310.285645
1542.136719	1296.174438
1540.509766	1337.410156
1538.882813	1332.520508
1537.255859	1353.755371
1535.628906	1341.182861
1534.001953	1371.622681
1532.373047	1379.014893
1530.746094	1288.142822
1529.117188	1310.899414
1527.488281	1301.417847
1525.859375	1353.315063
1524.228516	1356.100830
1522.599609	1311.339722
1520.968750	1315.666382
1519.337891	1332.255981
1517.707031	1313.584717
1516.076172	1383.803345
1514.443359	1322.229248
1512.810547	1331.144165
1511.179688	1347.712769
1509.546875	1280.059937
1507.914063	1371.643799
1506.279297	1403.498657
1504.646484	1312.922974
1503.011719	1317.238525
1501.376953	1281.783325
1499.742188	1339.627319
1498.107422	1348.521118
1496.472656	1314.609863
1494.835938	1329.618164
1493.201172	1333.924316
1491.564453	1370.309448
1489.927734	1308.929565
1488.289063	1308.656128
1486.652344	1319.069458
1485.013672	1314.214722
1483.376953	1365.826050
1481.738281	1344.180176
1480.099609	1305.763550
1478.458984	1339.042847
1476.820313	1289.969727
1475.179688	1318.664917
1473.539063	1339.727295
1471.898438	1372.971313
1470.257813	1314.790771
1468.617188	1284.051880
1466.974609	1282.260376
1465.333984	1317.010864
1463.691406	1348.702271
1462.048828	1301.240601
1460.406250	1319.227539
1458.761719	1335.685547
1457.119141	1406.891357
1455.474609	1313.837524
1453.830078	1302.920166
1452.185547	1346.727661
1450.539063	1290.217163
1448.894531	1324.892578
1447.248047	1327.653320
1445.603516	1363.824951
1443.957031	1389.352417
1442.308594	1364.771729
1440.662109	1408.501587
1439.015625	1352.060303
1437.367188	1344.191406
1435.718750	1357.561157
1434.070313	1357.276733
1432.421875	1376.702881
1430.771484	1335.485718
1429.123047	1360.970215
1427.472656	1292.499268
1425.822266	1295.258179
1424.171875	1349.512329
1422.521484	1273.515137
1420.869141	1358.030273
1419.218750	1372.882080
1417.566406	1310.547485
1415.914063	1375.332275
1414.261719	1311.510498
1412.607422	1323.334473
1410.955078	1362.370483
1409.300781	1309.173584
1407.646484	1330.058838
1405.992188	1316.179810
1404.337891	1281.155273
1402.683594	1315.627441
1401.027344	1378.778076
1399.371094	1346.781982
1397.714844	1357.065918
1396.058594	1343.198120
1394.402344	1330.844971
1392.744141	1330.565552
1391.087891	1318.219971
1389.429688	1345.086182
1387.771484	1305.605347
1386.113281	1300.809204
1384.453125	1326.154907
1382.794922	1264.102539
1381.134766	1346.686768
1379.474609	1292.186279
1377.814453	1273.845947
1376.154297	1357.881348
1374.492188	1354.585693
1372.832031	1331.729370
1371.169922	1360.034180
1369.507813	1316.128052
1367.845703	1327.882080
1366.181641	1287.007935
1364.519531	1306.278931
1362.855469	1346.582031
1361.191406	1239.616699
1359.527344	1267.898682
1357.863281	1353.242188
1356.199219	1298.899292
1354.533203	1276.106567
1352.867188	1277.338989
1351.201172	1268.066284
1349.535156	1261.797974
1347.869141	1302.033569
1346.201172	1253.768311
1344.535156	1299.986084
1342.867188	1355.178833
1341.199219	1240.986572
1339.531250	1366.595947
1337.861328	1276.419556
1336.193359	1316.592163
1334.523438	1286.364624
1332.853516	1350.473267
1331.183594	1233.431885
1329.511719	1270.586304
1327.841797	1294.258667
1326.169922	1295.481934
1324.500000	1266.792236
1322.828125	1360.729614
1321.154297	1284.198242
1319.482422	1319.799927
1317.808594	1358.375122
1316.136719	1256.493652
1314.462891	1266.684937
1312.789063	1318.687500
1311.113281	1309.450806
1309.439453	1301.710815
1307.763672	1249.199707
1306.087891	1234.014771
1304.412109	1293.428223
1302.736328	1258.850220
1301.060547	1286.917725
1299.382813	1285.155396
1297.707031	1280.412476
1296.029297	1245.866089
1294.351563	1256.032959
1292.671875	1301.946777
1290.994141	1252.524170
1289.314453	1243.325806
1287.636719	1313.032104
1285.957031	1266.614990
1284.275391	1261.883423
1282.595703	1251.202759
1280.914063	1265.812988
1279.234375	1311.646606
1277.552734	1274.199219
1275.871094	1263.524658
1274.189453	1269.202515
1272.505859	1254.075684
1270.822266	1273.123047
1269.140625	1284.735962
1267.457031	1290.404175
1265.771484	1330.216187
1264.087891	1224.549561
1262.404297	1216.870850
1260.718750	1287.830078
1259.033203	1321.675171
1257.347656	1331.777100
1255.662109	1289.979004
1253.974609	1268.952271
1252.287109	1268.683960
1250.601563	1247.670532
1248.914063	1262.221558
1247.224609	1253.067505
1245.537109	1322.402588
1243.849609	1270.303955
1242.160156	1230.069092
1240.470703	1284.565674
1238.781250	1268.018188
1237.091797	1289.939209
1235.400391	1255.649780
1233.708984	1270.170654
1232.019531	1244.769897
1230.328125	1312.495972
1228.634766	1239.809692
1226.943359	1221.818237
1225.250000	1308.708374
1223.558594	1289.233032
1221.865234	1322.918823
1220.171875	1260.639893
1218.476563	1201.339111
1216.783203	1248.301636
1215.087891	1309.996460
1213.392578	1305.294189
1211.697266	1312.390625
1210.001953	1241.346924
1208.306641	1273.511230
1206.609375	1211.347656
1204.912109	1272.971436
1203.214844	1231.456665
1201.517578	1212.050171
1199.820313	1233.879395
1198.121094	1218.896851
1196.423828	1245.130493
1194.724609	1255.166748
1193.025391	1274.025635
1191.326172	1263.459473
1189.625000	1286.720093
1187.923828	1239.399902
1186.224609	1262.655640
1184.523438	1240.343628
1182.822266	1259.181274
1181.119141	1250.100220
1179.417969	1238.085571
1177.714844	1284.810059
1176.011719	1340.322998
1174.308594	1256.377808
1172.605469	1237.034668
1170.900391	1266.114136
1169.197266	1287.847290
1167.492188	1250.911621
1165.787109	1287.300293
1164.080078	1229.858276
1162.375000	1229.597046
1160.667969	1252.779663
1158.962891	1314.040527
1157.255859	1265.429077
1155.548828	1303.232056
1153.839844	1231.219482
1152.132813	1264.622437
1150.423828	1333.132202
1148.714844	1269.937256
1147.005859	1298.922241
1145.296875	1207.974854
1143.585938	1288.135132
1141.876953	1289.323120
1140.166016	1289.048950
1138.455078	1329.688232
1136.744141	1291.422485
1135.033203	1327.662109
1133.320313	1290.873169
1131.607422	1300.818237
1129.894531	1326.815063
1128.181641	1244.810181
1126.468750	1262.053467
1124.753906	1302.628784
1123.041016	1344.645264
1121.326172	1332.694336
1119.611328	1313.459473
1117.896484	1333.584473
1116.179688	1293.957275
1114.464844	1284.940674
1112.748047	1307.971680
1111.031250	1284.393433
1109.314453	1307.414673
1107.595703	1304.224976
1105.878906	1279.207031
1104.160156	1332.769165
1102.441406	1259.751343
1100.722656	1336.564453
1099.003906	1308.652466
1097.283203	1299.651123
1095.562500	1337.163574
1093.843750	1315.081665
1092.123047	1293.009033
1090.400391	1334.856201
1088.679688	1311.336426
1086.957031	1316.864380
1085.236328	1297.713135
1083.513672	1330.815552
1081.789063	1220.258667
1080.066406	1349.106445
1078.341797	1280.652588
1076.619141	1310.830078
1074.894531	1300.402466
1073.169922	1313.169678
1071.443359	1292.602051
1069.718750	1296.672607
1067.992188	1316.674683
1066.265625	1356.942627
1064.539063	1249.510742
1062.812500	1283.985474
1061.085938	1321.339844
1059.357422	1268.967896
1057.628906	1278.823364
1055.900391	1255.409058
1054.171875	1226.220703
1052.443359	1215.838867
1050.712891	1179.444214
1048.982422	1316.475708
1047.251953	1219.394287
1045.521484	1188.799805
1043.791016	1246.312378
1042.058594	1260.484619
1040.328125	1244.336182
1038.595703	1173.351685
1036.863281	1165.886230
1035.128906	1236.325439
1033.396484	1181.253296
1031.662109	1267.520874
1029.927734	1212.465454
1028.193359	1241.033936
1026.458984	1200.418335
1024.724609	1216.010132
1022.988281	1212.869141
1021.251953	1255.814331
1019.515625	1220.989380
1017.779297	1187.618774
1016.042969	1217.588501
1014.304688	1191.427368
1012.568359	1171.031860
1010.830078	1190.917480
1009.089844	1182.034546
1007.351563	1183.219238
1005.613281	1126.908081
1003.873047	1149.660034
1002.132813	1158.034424
1000.392578	1210.935547
998.652344	1184.825439
996.910156	1190.315063
995.169922	1200.108887
993.427734	1196.981323
991.685547	1123.543945
989.941406	1144.822510
988.199219	1174.697632
986.455078	1181.615967
984.712891	1218.638672
982.968750	1175.375977
981.222656	1175.124023
979.478516	1098.935303
977.734375	1196.107300
975.988281	1172.936401
974.242188	1215.640381
972.496094	1171.001953
970.748047	1207.962891
969.001953	1144.743042
967.253906	1128.760620
965.505859	1168.567383
963.757813	1159.736572
962.009766	1186.652100
960.259766	1149.233276
958.511719	1189.001221
956.761719	1174.458252
955.011719	1195.633301
953.259766	1116.827393
951.509766	1170.846436
949.757813	1089.224487
948.007813	1131.808105
946.255859	1164.384766
944.501953	1111.349243
942.750000	1115.389526
940.996094	1162.208740
939.244141	1163.384888
937.490234	1138.903076
935.734375	1085.929565
933.980469	1145.537720
932.224609	1112.528320
930.470703	1123.682739
928.714844	1096.387573
926.958984	1148.824219
925.201172	1127.228271
923.445313	1064.375610
921.687500	1111.094482
919.929688	1129.346191
918.171875	1096.396362
916.414063	1104.691040
914.654297	1122.932129
912.894531	1163.903320
911.136719	1157.969727
909.375000	1099.479492
907.615234	1112.024902
905.855469	1124.564819
904.093750	1161.232422
902.332031	1172.336914
900.570313	1096.878296
898.808594	1061.175171
897.044922	1161.651611
895.283203	1123.113647
893.519531	1083.174316
891.755859	1074.436401
889.992188	1112.468262
888.226563	1100.893921
886.462891	1086.491455
884.697266	1094.754883
882.931641	1078.943848
881.166016	1063.139526
879.398438	1067.156494
877.632813	1096.641968
875.865234	1052.549561
874.097656	1046.665039
872.330078	1105.832031
870.562500	1082.972900
868.792969	1031.853516
867.023438	1099.464478
865.253906	1068.143921
863.484375	1076.389160
861.714844	1025.314941
859.943359	1060.393311
858.173828	1027.696167
856.402344	1033.119995
854.628906	1021.608765
852.857422	1029.852905
851.085938	1063.481689
849.312500	1027.998535
847.539063	1051.744141
845.765625	1031.783569
843.992188	987.874634
842.216797	1075.015259
840.441406	1067.740112
838.667969	1013.993286
836.892578	977.165894
835.115234	1044.525269
833.339844	1031.633057
831.562500	986.382874
829.785156	1008.678772
828.007813	964.859375
826.230469	1079.959106
824.451172	1019.272461
822.673828	1054.192017
820.894531	1028.669189
819.115234	1049.521606
817.335938	1016.987244
815.554688	1075.751221
813.775391	1012.335571
811.994141	1033.173340
810.212891	1046.984619
808.431641	1031.323486
806.648438	1060.560547
804.867188	1113.628418
803.083984	1099.365112
801.300781	1114.548706
799.515625	1101.692871
797.732422	1088.842529
795.947266	1106.820557
794.164063	1103.779663
792.378906	1016.714050
790.591797	1076.699707
788.806641	1097.464111
787.019531	1107.023315
785.234375	1036.822632
783.447266	993.231812
781.658203	1053.157227
779.871094	1061.319214
778.082031	968.820740
776.294922	1055.268799
774.505859	1000.541565
772.716797	984.956787
770.925781	1021.060303
769.136719	1005.477661
767.345703	1024.806641
765.554688	974.332520
763.763672	1007.615540
761.970703	1043.674683
760.179688	1000.204041
758.386719	1032.065063
756.593750	1031.841309
754.800781	1016.282837
753.005859	1034.181641
751.212891	955.922913
749.417969	997.510864
747.623047	986.151611
745.828125	1049.995850
744.033203	985.723999
742.236328	1000.821838
740.439453	996.429749
738.642578	990.648193
736.845703	984.869080
735.048828	1006.907471
733.250000	995.565369
731.451172	995.349365
729.652344	958.997253
727.853516	1008.812927
726.054688	990.533752
724.253906	1000.041321
722.455078	944.278442
720.654297	1012.102295
718.853516	953.584778
717.050781	967.255127
715.250000	985.081787
713.447266	919.672363
711.644531	941.661987
709.841797	944.230530
708.037109	950.956604
706.234375	990.942017
704.429688	961.628479
702.625000	950.336853
700.820313	1011.071655
699.013672	934.691833
697.208984	984.328064
695.402344	985.498230
693.595703	985.283997
691.789063	956.015808
689.982422	1005.604004
688.173828	974.960999
686.365234	963.687988
684.556641	933.067322
682.748047	925.954285
680.939453	945.096985
679.128906	940.747131
677.318359	940.542419
675.507813	970.715820
673.697266	995.353943
671.886719	909.563782
670.074219	945.243713
668.261719	960.213745
666.449219	951.728821
664.636719	994.271179
662.824219	985.782410
661.009766	957.999390
659.195313	946.765869
657.380859	960.337830
655.566406	947.731079
653.751953	924.111938
651.935547	1018.917847
650.119141	1000.799866
648.302734	922.131836
646.486328	930.187012
644.669922	947.868591
642.851563	896.771606
641.033203	1003.835266
639.214844	932.125977
637.396484	933.297302
635.578125	950.958679
633.757813	964.490540
631.937500	990.378967
630.117188	969.563232
628.296875	985.828003
626.474609	918.349731
624.654297	922.266663
622.832031	961.856995
621.009766	928.723450
619.185547	949.093628
617.363281	913.234741
615.539063	948.679443
613.714844	945.731201
611.890625	968.820313
610.066406	986.419189
608.242188	984.834106
606.416016	962.708252
604.589844	950.175903
602.763672	907.534668
600.937500	938.812683
599.109375	968.708801
597.281250	1013.639038
595.453125	940.932983
593.625000	939.360046
591.796875	898.143738
589.966797	938.949646
588.138672	981.104126
586.308594	997.283447
584.478516	936.968384
582.646484	988.654236
580.816406	928.367310
578.984375	932.259216
577.152344	967.536255
575.320313	957.774292
573.486328	987.573975
571.654297	998.268066
569.820313	988.505554
567.986328	911.952454
566.152344	951.275940
564.316406	1030.096313
562.482422	1017.610657
560.646484	1005.130310
558.810547	947.720337
556.974609	1016.942749
555.136719	969.082642
553.300781	975.674438
551.462891	970.018921
549.625000	964.365845
547.785156	926.078064
545.947266	995.213989
544.107422	937.906128
542.267578	959.444519
540.427734	951.082214
538.587891	963.099426
536.748047	877.328552
534.906250	988.475647
533.064453	943.461609
531.222656	969.041687
529.378906	886.058167
527.537109	922.492371
525.693359	919.577576
523.849609	907.171875
522.005859	839.187317
520.162109	943.370422
518.316406	846.950073
516.470703	894.183167
514.625000	938.686401
512.779297	866.706421
510.933594	893.594971
509.085938	885.277100
507.238281	866.136169
505.390625	895.713074
503.542969	867.108887
501.695313	898.024902
499.845703	931.631592
497.996094	901.686340
496.146484	871.754150
494.296875	863.455261
492.447266	902.443604
490.595703	927.908142
488.744141	884.492554
486.892578	862.697144
485.041016	886.803711
483.187500	850.172913
481.333984	872.922302
479.480469	855.195007
477.626953	886.024719
475.773438	861.560730
473.917969	900.463440
472.064453	851.748230
470.208984	852.908447
468.351563	852.721008
466.496094	883.510254
464.638672	881.969543
462.783203	872.352051
460.925781	851.971375
459.066406	839.673340
457.208984	858.323364
455.349609	835.268982
453.490234	848.532654
451.630859	919.601685
449.771484	823.964661
447.912109	847.972778
446.050781	849.129761
444.189453	844.913147
442.328125	838.012329
440.466797	839.170593
438.603516	860.463867
436.740234	787.802063
434.876953	794.337585
433.013672	776.723267
431.150391	842.270813
429.285156	855.494385
427.419922	831.175049
425.554688	845.735413
423.689453	869.669373
421.824219	821.247925
419.957031	814.369873
418.089844	776.694824
416.222656	807.316833
414.355469	839.263855
412.488281	825.696472
410.619141	805.445251
408.750000	806.605347
406.880859	846.548279
405.011719	808.923889
403.140625	818.102905
401.269531	804.557739
399.398438	789.682312
397.527344	806.874695
395.656250	832.072937
393.783203	771.801086
391.910156	803.670837
390.037109	836.861206
388.164063	823.332397
386.291016	780.458923
384.416016	793.624939
382.541016	796.116821
380.666016	826.605530
378.791016	794.432495
376.914063	794.257080
375.039063	798.078796
373.162109	799.234619
371.285156	789.735779
369.406250	749.617249
367.529297	774.744019
365.650391	778.565552
363.771484	797.021790
361.892578	744.964233
360.011719	859.179565
358.132813	744.635071
356.251953	724.529297
354.371094	800.128906
352.490234	740.154968
350.607422	724.049011
348.724609	773.033691
346.841797	750.287720
344.958984	770.036560
343.076172	771.193665
341.193359	731.211243
339.308594	715.128296
337.423828	738.846680
335.539063	767.859192
333.652344	757.082214
331.767578	711.844482
329.880859	762.048462
327.994141	777.779907
326.107422	714.021423
324.218750	732.405334
322.330078	734.891479
320.443359	742.671753
318.552734	697.506897
316.664063	696.029236
314.775391	772.606567
312.884766	1378.215332
310.994141	1656.930298
309.103516	743.007629
307.210938	756.060913
305.320313	742.678467
303.427734	694.950745
301.535156	709.326721
299.642578	714.452026
297.748047	682.605957
295.853516	681.134644
293.960938	695.500793
292.064453	708.541016
290.169922	744.000977
288.275391	663.385681
286.378906	731.804016
284.482422	721.095520
282.585938	722.253601
280.687500	718.140320
278.791016	711.394043
276.892578	692.796753
274.994141	721.612915
273.095703	675.374634
271.195313	693.651917
269.294922	648.756226
267.396484	684.134583
265.494141	732.650757
263.593750	675.940552
261.691406	686.308594
259.791016	653.294373
257.888672	649.206726
255.986328	680.596008
254.082031	706.716858
252.177734	678.980408
250.275391	676.203552
248.371094	641.922485
246.464844	639.154968
244.560547	673.128662
242.654297	676.914612
240.748047	650.533020
238.841797	685.792664
236.935547	606.981689
235.027344	648.788635
233.119141	614.574219
231.210938	669.461853
229.302734	645.736389
227.392578	656.068970
225.484375	642.830750
223.574219	663.630798
221.664063	651.705383
219.751953	664.643921
217.841797	642.258972
215.929688	626.422791
214.017578	601.441284
212.105469	609.150574
210.193359	639.073669
208.279297	620.638916
206.365234	619.194458
204.451172	609.914429
202.537109	658.090881
200.621094	617.475525
198.705078	601.676208
196.789063	571.530334
194.873047	607.931091
192.957031	619.534241
191.039063	603.748291
189.123047	615.347107
187.203125	636.064575
185.285156	547.310669
183.367188	635.781128
181.447266	586.142944
179.527344	617.266296
177.607422	578.069885
175.687500	610.482788
173.765625	619.456299
171.843750	603.705139
169.921875	607.472900
168.000000	608.637939
166.078125	626.705261
164.154297	594.067261
162.230469	579.638733
160.306641	592.502869
158.382813	620.950012
156.457031	580.549622
154.531250	603.792664
152.605469	641.305420
150.679688	589.246277
148.753906	602.090881
146.826172	608.443054
144.898438	605.713135
142.970703	641.886658
141.042969	637.853943
139.113281	628.638367
137.183594	622.018616
135.253906	595.968018
133.324219	575.110229
131.394531	594.406799
129.462891	631.820679
127.531250	569.547119
125.599609	566.831543
123.667969	561.529480
121.734375	540.707092
119.802734	570.331360
117.869141	519.777710
115.935547	581.710632
114.000000	476.896057
112.066406	483.249969
110.130859	510.270203
108.195313	548.902100
106.257813	495.838287
104.322266	546.074646
102.384766	502.069794
100.447266	442.600037
