#Wave		#Intensity
3501.405273	3740.653320
3500.167969	3718.435791
3498.929688	3669.269775
3497.691406	3537.341797
3496.453125	3738.540527
3495.213867	3701.507568
3493.975586	3605.969482
3492.736328	3722.305908
3491.497070	3717.570557
3490.256836	3662.417969
3489.017578	3746.415527
3487.777344	3657.006104
3486.537109	3847.799805
3485.296875	3744.298096
3484.055664	3759.711426
3482.814453	3698.568604
3481.573242	3808.646484
3480.332031	3683.078613
3479.089844	3843.450928
3477.848633	3717.923340
3476.606445	3791.687500
3475.363281	3706.460693
3474.121094	3852.624268
3472.877930	3775.463135
3471.634766	3712.408447
3470.391602	3751.921875
3469.147461	3628.586182
3467.904297	3840.953125
3466.660156	3729.704102
3465.416016	3837.495117
3464.170898	3706.200439
3462.926758	3713.534912
3461.681641	3863.436035
3460.436523	3710.125977
3459.190430	3906.137939
3457.945313	3839.173584
3456.699219	3830.423096
3455.453125	3787.571289
3454.206055	3881.126709
3452.959961	3836.275879
3451.712891	3829.536865
3450.465820	3890.957031
3449.218750	3677.773193
3447.970703	3861.433838
3446.722656	3794.589844
3445.474609	3843.950928
3444.226563	3777.135010
3442.978516	3896.562500
3441.729492	3793.726318
3440.480469	3762.985840
3439.231445	3842.323486
3437.981445	3833.594238
3436.731445	3822.867676
3435.481445	3774.143799
3434.231445	3889.413086
3432.981445	3830.697754
3431.730469	3821.978271
3430.479492	3823.254395
3429.228516	3870.488525
3427.977539	3807.824707
3426.725586	3743.187256
3425.473633	3822.361816
3424.221680	3857.579346
3422.969727	3790.972168
3421.716797	3668.504150
3420.463867	3763.596680
3419.210938	3862.643311
3417.958008	3762.173584
3416.704102	3851.210449
3415.450195	3840.511963
3414.196289	3845.766602
3412.942383	3743.381836
3411.687500	3806.446533
3410.433594	3767.868408
3409.178711	3699.422363
3407.922852	3830.179443
3406.667969	3817.506348
3405.412109	3820.766113
3404.156250	3873.790283
3402.900391	3827.281006
3401.643555	3685.274658
3400.386719	3714.419678
3399.129883	3717.694824
3397.873047	3774.665039
3396.616211	3877.346436
3395.358398	3880.588379
3394.100586	3814.261719
3392.842773	3734.049316
3391.583984	3769.105957
3390.326172	3754.486816
3389.067383	3753.775635
3387.808594	3822.565918
3386.548828	3801.988037
3385.289063	3785.387939
3384.030273	3802.532471
3382.769531	3835.544189
3381.509766	3775.301270
3380.249023	3853.925781
3378.988281	3831.381104
3377.727539	3804.879395
3376.466797	3728.828369
3375.205078	3692.445801
3373.943359	3774.973877
3372.681641	3740.577148
3371.419922	3815.140869
3370.157227	3743.120117
3368.894531	3667.166016
3367.631836	3749.619629
3366.369141	3786.516602
3365.105469	3841.210205
3363.842773	3822.674072
3362.578125	3725.015625
3361.314453	3639.261230
3360.050781	3765.129883
3358.786133	3643.812012
3357.521484	3741.957275
3356.255859	3749.152832
3354.991211	3702.993896
3353.725586	3641.047363
3352.459961	3808.251465
3351.194336	3724.584717
3349.927734	3650.821777
3348.661133	3831.747070
3347.394531	3754.043945
3346.127930	3636.903076
3344.860352	3762.483887
3343.593750	3584.234619
3342.326172	3619.054199
3341.057617	3705.129150
3339.790039	3812.857422
3338.521484	3747.086426
3337.252930	3691.194336
3335.984375	3757.485596
3334.714844	3780.411865
3333.446289	3689.091309
3332.176758	3751.406250
3330.906250	3669.969971
3329.636719	3751.949463
3328.366211	3782.726563
3327.095703	3681.652832
3325.825195	3759.647949
3324.554688	3680.253662
3323.283203	3697.253906
3322.011719	3718.179932
3320.740234	3662.428467
3319.467773	3728.559570
3318.195313	3755.362549
3316.922852	3658.375488
3315.650391	3622.321045
3314.377930	3678.588623
3313.104492	3670.034424
3311.831055	3596.696045
3310.557617	3615.640869
3309.283203	3612.990723
3308.009766	3665.281250
3306.735352	3721.475342
3305.460938	3579.546875
3304.185547	3757.319092
3302.911133	3795.817139
3301.635742	3685.319336
3300.359375	3786.533203
3299.083984	3689.795654
3297.807617	3693.011719
3296.531250	3647.256836
3295.254883	3628.937012
3293.978516	3626.288086
3292.701172	3676.497314
3291.423828	3687.541016
3290.146484	3659.442139
3288.869141	3825.052002
3287.590820	3611.100586
3286.312500	3698.424072
3285.034180	3656.655762
3283.754883	3734.161621
3282.476563	3665.036377
3281.197266	3689.744385
3279.917969	3653.870605
3278.637695	3619.963867
3277.357422	3662.244629
3276.078125	3591.245117
3274.796875	3713.565430
3273.516602	3642.582764
3272.235352	3653.598877
3270.954102	3647.048584
3269.672852	3642.451660
3268.391602	3618.350342
3267.109375	3654.714844
3265.827148	3661.817383
3264.544922	3624.079346
3263.262695	3631.184814
3261.979492	3681.159668
3260.696289	3598.626465
3259.413086	3588.200195
3258.128906	3566.092041
3256.845703	3631.618408
3255.561523	3518.006836
3254.277344	3587.410156
3252.992188	3666.517334
3251.707031	3582.149902
3250.422852	3653.446045
3249.136719	3701.374512
3247.851563	3751.229248
3246.565430	3628.023926
3245.279297	3751.741699
3243.993164	3640.243896
3242.707031	3645.378662
3241.419922	3708.795166
3240.132813	3642.044678
3238.845703	3608.334717
3237.557617	3551.336914
3236.270508	3657.431152
3234.982422	3648.968994
3233.694336	3638.569336
3232.405273	3556.386230
3231.116211	3658.517822
3229.827148	3675.274414
3228.538086	3633.851563
3227.249023	3528.466553
3225.958984	3702.243896
3224.668945	3596.885742
3223.378906	3627.200195
3222.087891	3549.017822
3220.797852	3581.266357
3219.506836	3537.979004
3218.215820	3603.131348
3216.923828	3513.397949
3215.631836	3574.658691
3214.339844	3550.755371
3213.047852	3664.220703
3211.755859	3559.069336
3210.462891	3577.727783
3209.169922	3548.040771
3207.876953	3688.483643
3206.583008	3535.087158
3205.289063	3563.397705
3203.995117	3475.773438
3202.701172	3558.171387
3201.407227	3555.559326
3200.112305	3676.529053
3198.817383	3544.546387
3197.521484	3543.868164
3196.226563	3535.470703
3194.930664	3573.383789
3193.634766	3640.218750
3192.338867	3508.368164
3191.041992	3515.410156
3189.745117	3532.089355
3188.448242	3442.742432
3187.151367	3519.173828
3185.854492	3479.962158
3184.556641	3494.708252
3183.258789	3478.629883
3181.959961	3437.522461
3180.662109	3448.416748
3179.363281	3461.231689
3178.064453	3506.760986
3176.764648	3486.846191
3175.465820	3378.437744
3174.166016	3391.255615
3172.866211	3382.913330
3171.565430	3378.419434
3170.265625	3420.066406
3168.964844	3459.775146
3167.664063	3501.390381
3166.362305	3481.505859
3165.061523	3329.080078
3163.759766	3451.362061
3162.458008	3375.810547
3161.155273	3338.685791
3159.853516	3468.572998
3158.550781	3375.788818
3157.248047	3411.598389
3155.944336	3389.841797
3154.640625	3333.568359
3153.337891	3424.977783
3152.033203	3351.463135
3150.729492	3369.989746
3149.424805	3334.845215
3148.120117	3326.540527
3146.815430	3402.536133
3145.509766	3315.687012
3144.205078	3316.966064
3142.899414	3391.004639
3141.592773	3317.607666
3140.287109	3236.583008
3138.980469	3299.111816
3137.673828	3367.356445
3136.367188	3426.010254
3135.059570	3304.862793
3133.752930	3308.052734
3132.445313	3403.007813
3131.136719	3280.022705
3129.829102	3353.924561
3128.520508	3353.280518
3127.211914	3320.160889
3125.902344	3248.854492
3124.593750	3368.535400
3123.284180	3262.880615
3121.974609	3138.177490
3120.664063	3294.071777
3119.354492	3253.368164
3118.043945	3287.083008
3116.733398	3337.951416
3115.421875	3274.377930
3114.111328	3191.761963
3112.799805	3267.400635
3111.488281	3196.253174
3110.175781	3233.750244
3108.864258	3288.379395
3107.551758	3177.266846
3106.238281	3155.707031
3104.925781	3177.949463
3103.612305	3224.931885
3102.298828	3256.669189
3100.985352	3246.528076
3099.671875	3204.045654
3098.357422	3123.533936
3097.042969	3159.069580
3095.727539	3171.772705
3094.413086	3188.273193
3093.097656	3048.900635
3091.782227	3135.734619
3090.466797	3178.833008
3089.150391	3189.619873
3087.833984	3226.992920
3086.517578	3224.473145
3085.201172	3220.055176
3083.883789	3115.031738
3082.566406	3167.572998
3081.249023	3113.832764
3079.931641	3137.896240
3078.613281	3125.911377
3077.294922	3055.141846
3075.976563	3062.137939
3074.658203	3207.516846
3073.338867	3186.050537
3072.019531	3132.377930
3070.700195	3182.928955
3069.379883	3117.911865
3068.060547	3016.936035
3066.740234	3145.113281
3065.418945	3104.751465
3064.098633	2956.516846
3062.777344	3198.175781
3061.456055	2997.002686
3060.134766	3019.125244
3058.812500	3075.282959
3057.491211	3163.565186
3056.167969	3145.940186
3054.845703	3101.858643
3053.523438	3084.251953
3052.200195	3087.436279
3050.876953	2914.930176
3049.552734	3035.249268
3048.229492	3066.766846
3046.905273	3003.870117
3045.580078	3014.616943
3044.255859	3029.134033
3042.930664	3136.105713
3041.605469	3052.491211
3040.280273	3368.787109
3038.955078	3305.904053
3037.628906	3088.434814
3036.302734	2978.501465
3034.976563	3074.049561
3033.649414	3011.271240
3032.322266	2986.197754
3030.995117	3023.294922
3029.667969	2977.511963
3028.339844	3057.903809
3027.012695	3074.256836
3025.684570	3045.429932
3024.355469	3176.572021
3023.027344	2968.994629
3021.698242	3002.281494
3020.369141	3046.840088
3019.039063	3110.185547
3017.708984	2970.461914
3016.378906	3071.390625
3015.048828	3006.900879
3013.718750	3066.446289
3012.387695	3116.575928
3011.056641	3070.896484
3009.725586	3186.730469
3008.393555	3049.057373
3007.062500	2988.399902
3005.730469	3091.044678
3004.397461	3090.447510
3003.065430	3076.717773
3001.732422	2991.717285
3000.399414	2927.377930
2999.065430	3058.059326
2997.732422	2999.355469
2996.398438	3055.002686
2995.064453	3136.862305
2993.729492	3070.682861
2992.395508	3036.372314
2991.060547	3013.311768
2989.724609	2971.535645
2988.389648	3017.762451
2987.053711	3150.069336
2985.717773	3039.051025
2984.381836	3117.043945
2983.044922	3052.840088
2981.708984	3012.974121
2980.372070	3139.543457
2979.034180	3004.330078
2977.697266	3142.066895
2976.359375	3010.642334
2975.021484	3094.139648
2973.682617	3018.817383
2972.344727	3066.793701
2971.005859	3058.730469
2969.666016	3045.069336
2968.327148	3031.413330
2966.987305	3086.814453
2965.647461	3045.166748
2964.307617	2977.417236
2962.967773	3047.717529
2961.626953	3145.963135
2960.286133	3122.979980
2958.944336	3148.472656
2957.603516	3047.220459
2956.261719	3145.389404
2954.919922	3072.122070
2953.577148	3011.921631
2952.235352	3082.105225
2950.892578	3051.717041
2949.549805	3034.371338
2948.206055	3024.477051
2946.863281	3029.473389
2945.519531	3114.468750
2944.174805	2994.816406
2942.831055	3085.364502
2941.486328	3040.140381
2940.141602	3184.557129
2938.796875	3077.993896
2937.451172	3088.547119
2936.105469	3119.533447
2934.759766	3182.087158
2933.414063	3109.037109
2932.067383	3145.571777
2930.720703	3053.991455
2929.374023	3040.405762
2928.027344	3006.411377
2926.679688	3024.382324
2925.332031	3088.723633
2923.984375	3019.499268
2922.635742	3048.583008
2921.287109	3148.107666
2919.938477	3073.350586
2918.589844	3033.834961
2917.240234	2979.510986
2915.890625	3106.759766
2914.541016	3020.954834
2913.191406	3042.590332
2911.840820	3141.979980
2910.490234	3015.492920
2909.139648	3148.162842
2907.789063	3010.620850
2906.437500	3071.087646
2905.085938	3101.935791
2903.734375	3095.785156
2902.381836	3087.787842
2901.029297	2989.211182
2899.676758	3090.284424
2898.324219	3084.140137
2896.970703	3129.729248
2895.617188	2957.333252
2894.263672	3060.180176
2892.910156	3072.510742
2891.555664	3060.836670
2890.201172	3135.916992
2888.846680	3150.070313
2887.491211	3070.121826
2886.135742	3135.932861
2884.780273	3063.394775
2883.424805	3040.671631
2882.068359	3182.036621
2880.712891	3070.823730
2879.355469	2983.611328
2877.999023	3010.668701
2876.641602	3039.557373
2875.284180	3037.124268
2873.926758	3137.812500
2872.569336	3078.287109
2871.210938	3066.643799
2869.852539	3135.980713
2868.494141	3164.810547
2867.134766	3097.967041
2865.775391	3102.881836
2864.416016	3069.177002
2863.056641	3154.992432
2861.696289	3058.790771
2860.335938	3093.114502
2858.975586	3160.499756
2857.614258	3090.072754
2856.253906	3074.776611
2854.892578	3024.594238
2853.530273	3104.791992
2852.168945	3133.558594
2850.806641	3186.173340
2849.444336	3154.357666
2848.082031	3076.688232
2846.718750	3052.243164
2845.355469	3130.506836
2843.992188	3082.224121
2842.627930	3079.790039
2841.264648	3082.855469
2839.900391	3091.416992
2838.535156	3092.646484
2837.170898	3214.772705
2835.805664	3102.429199
2834.440430	3114.641846
2833.075195	3082.912354
2831.708984	3117.087891
2830.342773	3116.479736
2828.976563	3198.205566
2827.609375	3120.751953
2826.243164	3151.234863
2824.875977	3154.277344
2823.507813	3038.484619
2822.140625	3154.874512
2820.772461	3125.018799
2819.404297	3157.297607
2818.035156	3154.854736
2816.666992	3159.718262
2815.297852	3191.970703
2813.928711	3123.796143
2812.558594	3247.310791
2811.189453	3131.701660
2809.819336	3087.298828
2808.448242	3112.236084
2807.078125	3080.621582
2805.707031	3070.902100
2804.335938	3137.761475
2802.963867	3162.668701
2801.592773	3118.310791
2800.220703	3228.852783
2798.848633	3124.379639
2797.475586	3094.626221
2796.102539	3108.590332
2794.729492	3199.019287
2793.356445	3090.992188
2791.982422	3170.468994
2790.609375	3075.226807
2789.234375	3154.675293
2787.860352	3152.239746
2786.485352	3246.190430
2785.110352	3167.371582
2783.735352	3166.752197
2782.360352	3118.877441
2780.984375	3225.480713
2779.608398	3150.360596
2778.231445	3151.560791
2776.855469	3176.369873
2775.478516	3195.721924
2774.101563	3173.312012
2772.723633	3174.506348
2771.346680	3155.738525
2769.968750	3209.551025
2768.589844	3205.295166
2767.211914	3132.123047
2765.833008	3282.011230
2764.454102	3179.845947
2763.075195	3208.224365
2761.695313	3303.643066
2760.315430	3158.048828
2758.935547	3246.193604
2757.554688	3147.756592
2756.174805	3225.004150
2754.793945	3200.836914
2753.412109	3218.311035
2752.031250	3257.494629
2750.649414	3269.522217
2749.267578	3321.343018
2747.884766	3094.610596
2746.502930	3222.393799
2745.120117	3169.332031
2743.736328	3226.553955
2742.353516	3160.861328
2740.969727	3246.972412
2739.585938	3202.979248
2738.202148	3196.933105
2736.817383	3279.374512
2735.432617	3213.734863
2734.047852	3195.053711
2732.662109	3290.079834
2731.277344	3247.933350
2729.891602	3290.593750
2728.504883	3239.445068
2727.119141	3208.153076
2725.732422	3214.735840
2724.345703	3201.486816
2722.958008	3074.698975
2721.571289	3326.366455
2720.183594	3266.261719
2718.794922	3332.266357
2717.407227	3191.144775
2716.018555	3235.531494
2714.629883	3387.910645
2713.241211	3331.451660
2711.851563	3221.031006
2710.461914	3281.568359
2709.072266	3387.050781
2707.681641	3150.795654
2706.291016	3232.887207
2704.900391	3259.218018
2703.509766	3271.159424
2702.119141	3265.126221
2700.727539	3318.384277
2699.334961	3238.696045
2697.943359	3329.652588
2696.550781	3302.064941
2695.158203	3349.887451
2693.765625	3298.972900
2692.372070	3370.105713
2690.979492	3265.382080
2689.584961	3341.874512
2688.191406	3312.522461
2686.796875	3308.285400
2685.402344	3282.536621
2684.007813	3305.192627
2682.613281	3333.215820
2681.217773	3348.686035
2679.822266	3335.488281
2678.425781	3367.070557
2677.030273	3312.689453
2675.633789	3285.183594
2674.237305	3375.824707
2672.839844	3260.627197
2671.442383	3388.810791
2670.044922	3332.688965
2668.647461	3358.861572
2667.249023	3308.131836
2665.850586	3286.027100
2664.452148	3351.517334
2663.053711	3375.877686
2661.654297	3360.919189
2660.254883	3399.559082
2658.855469	3350.666260
2657.455078	3291.078125
2656.054688	3495.747559
2654.654297	3459.359375
2653.252930	3362.306396
2651.852539	3450.860107
2650.451172	3334.223389
2649.048828	3349.619385
2647.647461	3500.536865
2646.245117	3314.425049
2644.842773	3365.466553
2643.439453	3409.358887
2642.037109	3349.886230
2640.633789	3400.889893
2639.229492	3425.156250
2637.826172	3440.508789
2636.421875	3535.975098
2635.017578	3449.833740
2633.613281	3385.083008
2632.208008	3459.150635
2630.802734	3447.794678
2629.397461	3367.073730
2627.991211	3353.961670
2626.584961	3456.424316
2625.178711	3473.519531
2623.772461	3483.498291
2622.365234	3440.165039
2620.958008	3398.625000
2619.550781	3355.324951
2618.142578	3439.906250
2616.735352	3426.798828
2615.326172	3442.099854
2613.917969	3462.718994
2612.508789	3437.193115
2611.099609	3489.739258
2609.690430	3308.123779
2608.281250	3408.557373
2606.871094	3512.497314
2605.460938	3348.711914
2604.049805	3434.898193
2602.639648	3505.102051
2601.228516	3486.693359
2599.817383	3420.465332
2598.405273	3487.087891
2596.993164	3381.931396
2595.581055	3494.562744
2594.168945	3435.464355
2592.755859	3468.408447
2591.342773	3435.876953
2589.929688	3534.256592
2588.516602	3409.760254
2587.102539	3437.377930
2585.688477	3468.520264
2584.273438	3466.067627
2582.859375	3497.191406
2581.444336	3542.437500
2580.028320	3545.270264
2578.613281	3503.949463
2577.197266	3527.977539
2575.781250	3560.822998
2574.365234	3450.685547
2572.948242	3453.532959
2571.531250	3507.545410
2570.114258	3621.512695
2568.696289	3511.449707
2567.278320	3560.127930
2565.860352	3554.135254
2564.442383	3440.625000
2563.023438	3476.952148
2561.604492	3650.694336
2560.185547	3516.093018
2558.766602	3547.099365
2557.346680	3507.658447
2555.926758	3552.738037
2554.505859	3532.673340
2553.084961	3581.249512
2551.665039	3562.946045
2550.243164	3586.868652
2548.822266	3519.324951
2547.400391	3501.044189
2545.978516	3590.013428
2544.555664	3571.725586
2543.133789	3460.302734
2541.710938	3568.554443
2540.287109	3541.497314
2538.864258	3582.948486
2537.440430	3585.750732
2536.016602	3611.375488
2534.591797	3684.383057
2533.167969	3627.494629
2531.743164	3642.567383
2530.317383	3469.928223
2528.892578	3577.983398
2527.466797	3622.867188
2526.041016	3667.733154
2524.614258	3645.971924
2523.187500	3643.496826
2521.760742	3653.287598
2520.333984	3649.059814
2518.906250	3692.123535
2517.479492	3572.314453
2516.050781	3643.388672
2514.623047	3616.409668
2513.194336	3690.946533
2511.765625	3574.731445
2510.336914	3643.998535
2508.907227	3603.047607
2507.477539	3644.302002
2506.047852	3599.870117
2504.617188	3639.360352
2503.186523	3615.918701
2501.755859	3700.819824
2500.325195	3672.134033
2498.893555	3805.895508
2497.461914	3586.855469
2496.030273	3685.661621
2494.597656	3714.605225
2493.166016	3785.422607
2491.732422	3685.212402
2490.299805	3668.779785
2488.866211	3687.237793
2487.432617	3724.870361
2485.999023	3680.542969
2484.564453	3753.024902
2483.130859	3736.594238
2481.695313	3847.370117
2480.260742	3813.505615
2478.825195	3755.269531
2477.389648	3771.937988
2475.954102	3797.304932
2474.517578	3749.550537
2473.081055	3734.882324
2471.644531	3779.381348
2470.207031	3754.274414
2468.770508	3729.177490
2467.332031	3803.213623
2465.894531	3802.457764
2464.456055	3735.645752
2463.017578	3792.256104
2461.579102	3907.923096
2460.140625	3757.739990
2458.701172	3862.945801
2457.261719	3856.968018
2455.821289	3788.487305
2454.380859	3850.226318
2452.940430	3813.013916
2451.500000	3846.959473
2450.058594	3835.785156
2448.617188	3786.455322
2447.175781	3794.372803
2445.734375	4008.612793
2444.291992	3749.525879
2442.849609	3767.844238
2441.407227	3867.596436
2439.963867	3849.502197
2438.520508	3914.555908
2437.077148	3792.553467
2435.632813	3764.095703
2434.188477	3907.025146
2432.744141	3802.403809
2431.299805	3836.254150
2429.854492	3951.402832
2428.409180	3926.400146
2426.963867	3892.760498
2425.517578	3905.817139
2424.071289	3996.657959
2422.625000	3843.770264
2421.177734	3891.387451
2419.730469	3869.880615
2418.283203	3914.018799
2416.835938	3894.242676
2415.387695	3991.882324
2413.939453	3968.645508
2412.491211	3907.447754
2411.041992	3868.706543
2409.593750	3919.691895
2408.143555	3944.783447
2406.693359	3902.608398
2405.244141	3907.002686
2403.794922	3964.834229
2402.343750	3900.274170
2400.892578	3999.439209
2399.441406	4010.701172
2397.990234	3884.161133
2396.539063	3935.050049
2395.085938	4008.301270
2393.634766	4055.701904
2392.181641	4034.239502
2390.728516	4014.506348
2389.275391	4049.833740
2387.822266	4028.384766
2386.369141	4005.224365
2384.914063	3877.191162
2383.460938	3958.930664
2382.005859	4047.512207
2380.550781	4007.182129
2379.095703	4150.694336
2377.640625	4041.652832
2376.183594	4001.347412
2374.728516	4031.453857
2373.271484	4001.466064
2371.814453	4031.560059
2370.357422	4102.824219
2368.900391	3945.885010
2367.443359	4042.866455
2365.986328	4084.931641
2364.527344	4068.684082
2363.068359	4002.730225
2361.611328	4013.927734
2360.152344	4052.536865
2358.693359	4115.115723
2357.232422	3963.561035
2355.773438	4029.557129
2354.312500	4057.858398
2352.851563	4089.572021
2351.392578	4148.656738
2349.931641	4070.825195
2348.468750	4025.530029
2347.007813	4023.014648
2345.546875	4047.861816
2344.083984	4096.635742
2342.621094	4172.741211
2341.158203	4100.124023
2339.695313	4058.293701
2338.232422	4009.645996
2336.769531	4061.793945
2335.304688	4146.367676
2333.839844	4205.296387
2332.375000	4158.364258
2330.910156	4198.493164
2329.445313	4262.494141
2327.980469	4159.279785
2326.515625	4108.982422
2325.048828	4147.382324
2323.582031	4182.356934
2322.115234	4179.814941
2320.648438	4061.379883
2319.181641	4171.324707
2317.714844	4192.636230
2316.246094	4222.456055
2314.779297	4199.471680
2313.310547	4164.578125
2311.841797	4167.148438
2310.373047	4166.313477
2308.904297	4184.195801
2307.433594	4219.083496
2305.964844	4136.594238
2304.494141	4173.177734
2303.023438	4075.428711
2301.552734	4098.410156
2300.082031	4311.729980
2298.611328	4358.443359
2297.138672	4192.780273
2295.667969	4241.196289
2294.195313	4192.796875
2292.722656	4164.790527
2291.250000	4114.728027
2289.777344	4142.754395
2288.302734	4135.135742
2286.830078	4180.111328
2285.355469	4152.134277
2283.880859	4376.841797
2282.408203	4303.059082
2280.931641	4407.292480
2279.457031	4247.099121
2277.982422	4410.606934
2276.505859	4306.381836
2275.029297	4352.942383
2273.554688	4324.974121
2272.078125	4185.273926
2270.599609	4247.064453
2269.123047	4371.448730
2267.646484	4280.892090
2266.167969	4437.361328
2264.689453	4296.086426
2263.210938	4383.157227
2261.732422	4218.279297
2260.253906	4415.203125
2258.775391	4255.455078
2257.294922	4257.979492
2255.814453	4373.687988
2254.333984	4322.139160
2252.853516	4203.064453
2251.373047	4338.973145
2249.892578	4208.126953
2248.412109	4286.600098
2246.929688	4304.298828
2245.447266	4338.859375
2243.964844	4265.462402
2242.482422	4325.310547
2241.000000	4422.225586
2239.517578	4321.885742
2238.033203	4400.223633
2236.548828	4347.105957
2235.066406	4442.252930
2233.582031	4456.517578
2232.095703	4339.431641
2230.611328	4483.345215
2229.126953	4484.126465
2227.640625	4476.492676
2226.154297	4423.432617
2224.667969	4378.804688
2223.181641	4487.245117
2221.695313	4489.705078
2220.208984	4477.032715
2218.720703	4489.578125
2217.234375	4367.676758
2215.746094	4464.248047
2214.257813	4451.590332
2212.769531	4443.975586
2211.279297	4392.705566
2209.791016	4415.324219
2208.300781	4496.681152
2206.812500	4379.982422
2205.322266	4481.447266
2203.832031	4525.835938
2202.341797	4491.381348
2200.849609	4567.609375
2199.359375	4492.924316
2197.867188	4538.950195
2196.375000	4546.414551
2194.882813	4535.445313
2193.390625	4496.003418
2191.898438	4558.738281
2190.404297	4529.354004
2188.912109	4438.039063
2187.417969	4537.569824
2185.923828	4543.348633
2184.429688	4584.259277
2182.935547	4605.080566
2181.439453	4565.686035
2179.945313	4593.190430
2178.449219	4590.592285
2176.953125	4547.880859
2175.458984	4665.608887
2173.960938	4561.082031
2172.464844	4570.184082
2170.968750	4525.840332
2169.470703	4580.027344
2167.972656	4597.466309
2166.474609	4671.645020
2164.976563	4612.297363
2163.478516	4636.391602
2161.980469	4597.090820
2160.480469	4521.116211
2158.982422	4721.953125
2157.482422	4664.320801
2155.982422	4690.045898
2154.482422	4644.106934
2152.980469	4624.842773
2151.480469	4528.965332
2149.978516	4586.336914
2148.476563	4613.715332
2146.974609	4614.447754
2145.472656	4608.521973
2143.970703	4697.446289
2142.468750	4671.541992
2140.964844	4763.743652
2139.462891	4799.366211
2137.958984	4663.721680
2136.455078	4666.103516
2134.949219	4723.329102
2133.445313	4767.238281
2131.941406	4764.612793
2130.435547	4683.922852
2128.929688	4736.115723
2127.423828	4726.855957
2125.917969	4734.199707
2124.412109	4613.749023
2122.906250	4747.217773
2121.398438	4839.158691
2119.890625	4821.593262
2118.382813	4774.185547
2116.875000	4700.270020
2115.367188	4765.623047
2113.859375	4877.353027
2112.349609	4732.211914
2110.841797	4883.661621
2109.332031	4715.389648
2107.822266	4800.543457
2106.312500	4739.969727
2104.800781	4775.425781
2103.291016	4724.811035
2101.779297	4785.073730
2100.269531	4726.205566
2098.757813	4865.831543
2097.246094	4654.840332
2095.732422	4643.978027
2094.220703	4783.534668
2092.707031	4775.955078
2091.195313	4827.858887
2089.681641	4772.367676
2088.167969	4858.933594
2086.654297	4948.767090
2085.138672	4785.975098
2083.625000	4869.184082
2082.109375	4838.492676
2080.593750	4829.261719
2079.078125	4821.684570
2077.562500	4909.765137
2076.046875	4902.173828
2074.531250	4810.508789
2073.013672	4910.074707
2071.496094	4843.163086
2069.978516	4911.377930
2068.460938	4823.078613
2066.943359	4759.518066
2065.425781	4966.018555
2063.906250	4859.652344
2062.386719	4842.207520
2060.869141	5004.134766
2059.349609	5031.087402
2057.828125	4878.736816
2056.308594	4910.637207
2054.789063	4891.553711
2053.267578	4925.082031
2051.746094	4970.101563
2050.224609	5008.529297
2048.703125	4953.297363
2047.181641	4888.231445
2045.658203	4966.064941
2044.136719	5058.643555
2042.613281	4872.120605
2041.089844	4949.909180
2039.566406	5037.511230
2038.042969	4980.708984
2036.517578	4953.453125
2034.994141	5106.595703
2033.468750	4951.439941
2031.943359	4955.351074
2030.417969	5162.481934
2028.892578	5084.420898
2027.367188	5083.386719
2025.839844	4995.545410
2024.314453	4984.704590
2022.787109	5103.207520
2021.259766	5028.509766
2019.732422	4912.928711
2018.203125	5023.191895
2016.675781	5061.431641
2015.146484	4973.717285
2013.619141	4948.177246
2012.089844	5051.803223
2010.560547	5081.831543
2009.029297	4959.865234
2007.500000	5053.621094
2005.968750	5036.257324
2004.439453	5120.159668
2002.908203	4999.916016
2001.376953	5150.726563
1999.843750	5019.099609
1998.312500	4967.488770
1996.781250	5170.422363
1995.248047	5157.951172
1993.714844	5135.698730
1992.181641	5128.130371
1990.648438	5162.951172
1989.115234	5108.112793
1987.580078	5149.440918
1986.044922	5117.436035
1984.511719	5049.607910
1982.976563	5134.893555
1981.441406	5029.639648
1979.904297	5111.638184
1978.369141	5182.209473
1976.832031	5256.006348
1975.294922	5023.913086
1973.759766	5083.072266
1972.220703	5168.227539
1970.683594	5290.743652
1969.146484	5216.513184
1967.607422	5130.936035
1966.068359	5155.888184
1964.531250	5123.969238
1962.992188	5153.785156
1961.451172	5129.998535
1959.912109	5227.991699
1958.371094	5163.617676
1956.832031	5164.187012
1955.291016	5210.188477
1953.750000	5097.188477
1952.208984	5115.611328
1950.666016	5244.296387
1949.125000	5097.310059
1947.582031	5191.905762
1946.039063	5205.431152
1944.496094	5128.214844
1942.953125	5258.384277
1941.410156	5130.979492
1939.865234	5178.510742
1938.322266	5219.545898
1936.777344	5296.174316
1935.232422	5201.230957
1933.687500	5242.235840
1932.142578	5250.870605
1930.595703	5282.144043
1929.050781	5234.171875
1927.503906	5210.469238
1925.957031	5167.379883
1924.410156	5197.027832
1922.863281	5309.061523
1921.314453	5282.131348
1919.767578	5272.976074
1918.218750	5265.439453
1916.669922	5203.018066
1915.121094	5164.832031
1913.572266	5294.483887
1912.021484	5180.466309
1910.472656	5245.540527
1908.921875	5107.389160
1907.371094	5303.052246
1905.820313	5403.524902
1904.269531	5346.010254
1902.718750	5304.631836
1901.166016	5276.158691
1899.615234	5310.514648
1898.062500	5293.323730
1896.509766	5408.164063
1894.957031	5223.548828
1893.402344	5425.263184
1891.849609	5350.135254
1890.294922	5398.910645
1888.740234	5372.070801
1887.185547	5353.281738
1885.630859	5352.185547
1884.076172	5460.393555
1882.519531	5346.779297
1880.964844	5305.515137
1879.408203	5370.291504
1877.851563	5370.797363
1876.294922	5384.148926
1874.736328	5301.168457
1873.179688	5285.635742
1871.621094	5472.312500
1870.064453	5370.110352
1868.505859	5458.840332
1866.947266	5422.437988
1865.386719	5475.844238
1863.828125	5543.656738
1862.267578	5441.542969
1860.708984	5504.526367
1859.148438	5484.171875
1857.587891	5492.657715
1856.025391	5465.907227
1854.464844	5488.803711
1852.902344	5582.127441
1851.341797	5419.330566
1849.779297	5399.016602
1848.216797	5607.489746
1846.652344	5404.798828
1845.089844	5552.415039
1843.525391	5511.303711
1841.962891	5473.405762
1840.398438	5438.720215
1838.833984	5551.053223
1837.267578	5569.084473
1835.703125	5365.092773
1834.136719	5675.387207
1832.572266	5495.405273
1831.005859	5545.356445
1829.439453	5555.389160
1827.873047	5614.880371
1826.304688	5458.986816
1824.738281	5491.358887
1823.169922	5499.798340
1821.601563	5525.770996
1820.033203	5526.229492
1818.464844	5454.974609
1816.896484	5638.675781
1815.326172	5615.215332
1813.755859	5558.318848
1812.185547	5520.552734
1810.615234	5610.161133
1809.044922	5556.482910
1807.474609	5642.863770
1805.902344	5582.836426
1804.332031	5629.408691
1802.759766	5653.696777
1801.187500	5663.664063
1799.615234	5595.731445
1798.041016	5688.353516
1796.468750	5517.155762
1794.894531	5609.754883
1793.320313	5603.835449
1791.746094	5701.142090
1790.171875	5609.467773
1788.597656	5555.928711
1787.021484	5630.965332
1785.445313	5553.642090
1783.871094	5584.227051
1782.294922	5767.065430
1780.716797	5591.442871
1779.140625	5574.437012
1777.564453	5650.959961
1775.986328	5671.983398
1774.408203	5561.486816
1772.830078	5617.370605
1771.251953	5758.756836
1769.673828	5615.056152
1768.093750	5655.061523
1766.513672	5672.890625
1764.935547	5663.809082
1763.355469	5705.360840
1761.773438	5685.202637
1760.193359	5780.504395
1758.613281	5621.192383
1757.031250	5675.364258
1755.449219	5729.513672
1753.867188	5740.974609
1752.285156	5654.476074
1750.701172	5727.550293
1749.119141	5713.734863
1747.535156	5731.503906
1745.951172	5637.184082
1744.367188	5809.631348
1742.783203	5764.250488
1741.199219	5739.396973
1739.613281	5753.985840
1738.029297	5834.801270
1736.443359	5691.698730
1734.857422	5752.000977
1733.271484	5864.285156
1731.683594	5863.075195
1730.097656	5776.795898
1728.509766	5797.653809
1726.921875	5777.560547
1725.333984	5814.152344
1723.746094	5827.118164
1722.158203	5832.209961
1720.568359	5808.978027
1718.978516	5850.250977
1717.390625	5866.342773
1715.800781	5648.136719
1714.208984	5816.756348
1712.619141	5879.997070
1711.027344	5825.353027
1709.437500	5769.160156
1707.845703	6014.583008
1706.253906	5963.084961
1704.662109	5968.132813
1703.068359	5874.279785
1701.476563	5926.428223
1699.882813	5953.448242
1698.289063	5875.343750
1696.695313	5845.895508
1695.101563	5977.983887
1693.505859	5917.167969
1691.912109	5906.539063
1690.316406	5930.393066
1688.720703	6035.715820
1687.125000	6018.801270
1685.529297	6020.688477
1683.933594	5906.695801
1682.335938	6010.369141
1680.738281	5879.207031
1679.140625	5956.238281
1677.542969	6122.421387
1675.945313	5944.386719
1674.347656	6011.971680
1672.748047	5990.399414
1671.148438	6001.666016
1669.548828	6009.801270
1667.949219	6017.933105
1666.349609	5910.445801
1664.748047	6116.973633
1663.148438	6092.280762
1661.546875	5998.896484
1659.945313	6086.635254
1658.343750	6016.701172
1656.742188	5965.520508
1655.138672	6012.647949
1653.537109	6072.233398
1651.933594	6095.926270
1650.330078	5957.458984
1648.726563	6127.693359
1647.121094	6034.472168
1645.517578	5989.592773
1643.912109	5975.888184
1642.306641	6038.507324
1640.701172	6121.343750
1639.095703	6168.337402
1637.490234	6076.778320
1635.884766	6129.985840
1634.277344	6086.705078
1632.669922	6175.666016
1631.062500	6188.382324
1629.455078	6084.472168
1627.845703	6249.553711
1626.238281	6198.519531
1624.628906	6122.642578
1623.019531	6194.393066
1621.410156	6214.854004
1619.800781	6177.845215
1618.191406	6108.244629
1616.580078	6111.633301
1614.968750	6163.133789
1613.359375	6071.854492
1611.746094	6104.724121
1610.134766	6070.883789
1608.523438	6198.334961
1606.910156	6145.883789
1605.298828	6205.061035
1603.685547	6104.585938
1602.070313	6092.471191
1600.457031	6270.905273
1598.843750	6268.053223
1597.228516	6186.229004
1595.613281	6215.906738
1593.998047	6302.842285
1592.382813	6309.269531
1590.767578	6272.372559
1589.152344	6291.177734
1587.535156	6359.465332
1585.917969	6229.804688
1584.300781	6237.784668
1582.683594	6210.212402
1581.066406	6280.003418
1579.447266	6263.247559
1577.828125	6203.248535
1576.210938	6320.870117
1574.591797	6291.763184
1572.970703	6281.191895
1571.351563	6321.555176
1569.730469	6474.542480
1568.111328	6369.833984
1566.490234	6399.355469
1564.869141	6431.949219
1563.248047	6379.732422
1561.625000	6350.658691
1560.003906	6363.206543
1558.380859	6443.542969
1556.757813	6343.611328
1555.134766	6377.713379
1553.511719	6267.058105
1551.886719	6364.280762
1550.263672	6184.410645
1548.638672	6461.654785
1547.013672	6374.150879
1545.388672	6377.437012
1543.761719	6331.509277
1542.136719	6434.745117
1540.509766	6351.929199
1538.882813	6392.102539
1537.255859	6430.722168
1535.628906	6375.611328
1534.001953	6349.706543
1532.373047	6435.915039
1530.746094	6316.352539
1529.117188	6391.785645
1527.488281	6362.828125
1525.859375	6425.944824
1524.228516	6478.296387
1522.599609	6407.926758
1520.968750	6446.458984
1519.337891	6523.301270
1517.707031	6497.416016
1516.076172	6578.812500
1514.443359	6563.650391
1512.810547	6415.226563
1511.179688	6524.155273
1509.546875	6507.481445
1507.914063	6432.642090
1506.279297	6466.501465
1504.646484	6428.426270
1503.011719	6489.809570
1501.376953	6404.327637
1499.742188	6459.572754
1498.107422	6412.355469
1496.472656	6501.204102
1494.835938	6545.695313
1493.201172	6472.512695
1491.564453	6578.096680
1489.927734	6549.229980
1488.289063	6584.509766
1486.652344	6633.515137
1485.013672	6629.075684
1483.376953	6609.377441
1481.738281	6569.852539
1480.099609	6588.309570
1478.458984	6664.712402
1476.820313	6584.029785
1475.179688	6610.093750
1473.539063	6748.933105
1471.898438	6688.092285
1470.257813	6711.069824
1468.617188	6756.884766
1466.974609	6734.151367
1465.333984	6674.885254
1463.691406	6780.045410
1462.048828	6745.144531
1460.406250	6766.557129
1458.761719	6696.683105
1457.119141	6631.401367
1455.474609	6718.210449
1453.830078	6782.178223
1452.185547	6794.438477
1450.539063	6659.283203
1448.894531	6797.671387
1447.248047	6767.385742
1445.603516	6712.812988
1443.957031	6744.812500
1442.308594	6720.627930
1440.662109	6817.875977
1439.015625	6901.425781
1437.367188	6807.434082
1435.718750	6771.121094
1434.070313	6809.131348
1432.421875	6962.355957
1430.771484	6892.682617
1429.123047	6829.100098
1427.472656	6989.799316
1425.822266	6958.035645
1424.171875	6891.449219
1422.521484	6938.461426
1420.869141	6982.425781
1419.218750	6865.923828
1417.566406	6947.717773
1415.914063	6870.609375
1414.261719	6961.443359
1412.607422	7087.022949
1410.955078	6994.812500
1409.300781	7071.956055
1407.646484	7040.243652
1405.992188	7032.721680
1404.337891	6945.130371
1402.683594	7002.581543
1401.027344	6957.317383
1399.371094	6989.073730
1397.714844	6961.944336
1396.058594	7031.416016
1394.402344	6918.281250
1392.744141	7048.075195
1391.087891	7005.872070
1389.429688	7033.051758
1387.771484	6971.269531
1386.113281	6963.775879
1384.453125	6960.806152
1382.794922	7031.664551
1381.134766	7000.059570
1379.474609	6957.925781
1377.814453	7033.255859
1376.154297	7085.972656
1374.492188	7084.483398
1372.832031	7039.355957
1371.169922	6920.528320
1369.507813	7089.041992
1367.845703	6964.237305
1366.181641	7170.258301
1364.519531	7158.228027
1362.855469	7007.937500
1361.191406	7086.099609
1359.527344	7039.541992
1357.863281	7255.841309
1356.199219	7023.065918
1354.533203	7128.181152
1352.867188	7192.724609
1351.201172	7236.231445
1349.535156	7078.671875
1347.869141	7197.185059
1346.201172	7078.692383
1344.535156	7137.178711
1342.867188	7188.144531
1341.199219	7188.129883
1339.531250	7242.059570
1337.861328	7000.831543
1336.193359	7155.131836
1334.523438	7179.082520
1332.853516	7167.090332
1331.183594	7222.462402
1329.511719	7261.348633
1327.841797	7196.976074
1326.169922	7235.850098
1324.500000	7277.698730
1322.828125	7256.726563
1321.154297	7320.976563
1319.482422	7283.561523
1317.808594	7332.834961
1316.136719	7383.581055
1314.462891	7450.736328
1312.789063	7362.547363
1311.113281	7453.567383
1309.439453	7474.387695
1307.763672	7453.409180
1306.087891	7450.345215
1304.412109	7384.625000
1302.736328	7411.406250
1301.060547	7509.754395
1299.382813	7318.825684
1297.707031	7552.793945
1296.029297	7500.531250
1294.351563	7586.855957
1292.671875	7446.718262
1290.994141	7495.783691
1289.314453	7574.608398
1287.636719	7474.755371
1285.957031	7558.015625
1284.275391	7496.896973
1282.595703	7679.795898
1280.914063	7574.053711
1279.234375	7567.992676
1277.552734	7596.130859
1275.871094	7591.553223
1274.189453	7701.413574
1272.505859	7668.583496
1270.822266	7689.247070
1269.140625	7628.212402
1267.457031	7668.178711
1265.771484	7611.627441
1264.087891	7872.740723
1262.404297	7606.926758
1260.718750	7753.686523
1259.033203	7677.879395
1257.347656	7781.552734
1255.662109	7750.252930
1253.974609	7723.413086
1252.287109	7677.316406
1250.601563	7786.827637
1248.914063	7671.106934
1247.224609	7782.052734
1245.537109	7814.466309
1243.849609	7775.799805
1242.160156	7785.996582
1240.470703	7886.463379
1238.781250	7901.070313
1237.091797	7840.226563
1235.400391	7851.878418
1233.708984	7754.103516
1232.019531	7931.342285
1230.328125	7741.952637
1228.634766	8026.992188
1226.943359	7963.241211
1225.250000	7911.333984
1223.558594	7855.017578
1221.865234	7915.365723
1220.171875	7909.260742
1218.476563	8006.467285
1216.783203	7979.687500
1215.087891	7918.987793
1213.392578	7994.005371
1211.697266	7936.276855
1210.001953	8146.892090
1208.306641	7999.242676
1206.609375	8049.125000
1204.912109	8056.259277
1203.214844	8119.365234
1201.517578	7999.826172
1199.820313	8077.640137
1198.121094	8159.836914
1196.423828	8109.537598
1194.724609	8168.148438
1193.025391	8032.540527
1191.326172	8152.917480
1189.625000	8110.012695
1187.923828	8221.500000
1186.224609	8228.575195
1184.523438	8112.200195
1182.822266	8100.193848
1181.119141	8279.159180
1179.417969	8187.813477
1177.714844	8266.834961
1176.011719	8306.185547
1174.308594	8393.954102
1172.605469	8210.211914
1170.900391	8371.318359
1169.197266	8354.872070
1167.492188	8257.776367
1165.787109	8341.061523
1164.080078	8453.626953
1162.375000	8396.140625
1160.667969	8429.522461
1158.962891	8382.319336
1157.255859	8386.396484
1155.548828	8463.687500
1153.839844	8514.592773
1152.132813	8326.895508
1150.423828	8644.140625
1148.714844	8474.050781
1147.005859	8431.292969
1145.296875	8527.483398
1143.585938	8572.458984
1141.876953	8659.807617
1140.166016	8508.891602
1138.455078	8359.501953
1136.744141	8557.865234
1135.033203	8516.609375
1133.320313	8561.526367
1131.607422	8740.739258
1129.894531	8607.511719
1128.181641	8650.919922
1126.468750	8523.602539
1124.753906	8599.100586
1123.041016	8705.192383
1121.326172	8666.887695
1119.611328	8628.597656
1117.896484	8709.836914
1116.179688	8697.782227
1114.464844	8585.209961
1112.748047	8737.775391
1111.031250	8686.402344
1109.314453	8725.318359
1107.595703	8717.637695
1105.878906	8717.236328
1104.160156	8859.422852
1102.441406	8842.988281
1100.722656	8756.750977
1099.003906	8797.052734
1097.283203	8872.227539
1095.562500	8829.639648
1093.843750	8807.414063
1092.123047	8857.838867
1090.400391	8869.022461
1088.679688	8877.297852
1086.957031	9014.786133
1085.236328	8864.802734
1083.513672	8886.132813
1081.789063	8987.255859
1080.066406	8898.299805
1078.341797	8925.409180
1076.619141	8969.906250
1074.894531	8824.469727
1073.169922	9000.865234
1071.443359	8971.412109
1069.718750	8824.618164
1067.992188	8960.340820
1066.265625	9025.044922
1064.539063	9043.388672
1062.812500	9012.506836
1061.085938	9078.603516
1059.357422	9067.983398
1057.628906	9096.426758
1055.900391	9026.506836
1054.171875	9169.180664
1052.443359	9081.925781
1050.712891	9127.684570
1048.982422	8987.005859
1047.251953	9035.653320
1045.521484	9098.724609
1043.791016	9124.219727
1042.058594	9091.949219
1040.328125	9159.295898
1038.595703	8991.366211
1036.863281	9087.563477
1035.128906	9206.800781
1033.396484	9018.774414
1031.662109	9234.588867
1029.927734	9272.982422
1028.193359	9276.764648
1026.458984	9235.872070
1024.724609	9079.734375
1022.988281	9086.435547
1021.251953	9277.471680
1019.515625	9230.852539
1017.779297	9382.908203
1016.042969	9249.930664
1014.304688	9295.435547
1012.568359	9371.131836
1010.830078	9300.087891
1009.089844	9329.732422
1007.351563	9393.869141
1005.613281	9407.669922
1003.873047	9455.953125
1002.132813	9313.125977
1000.392578	9559.638672
998.652344	9393.870117
996.910156	9411.960938
995.169922	9376.927734
993.427734	9552.887695
991.685547	9382.955078
989.941406	9329.298828
988.199219	9541.011719
986.455078	9516.023438
984.712891	9376.349609
982.968750	9317.004883
981.222656	9454.016602
979.478516	9288.654297
977.734375	9470.018555
975.988281	9466.555664
974.242188	9503.186523
972.496094	9558.410156
970.748047	9444.724609
969.001953	9598.669922
967.253906	9553.692383
965.505859	9605.995117
963.757813	9450.923828
962.009766	9526.100586
960.259766	9542.638672
958.511719	9554.881836
956.761719	9508.539063
955.011719	9452.216797
953.259766	9657.272461
951.509766	9519.552734
949.757813	9551.770508
948.007813	9709.572266
946.255859	9734.599609
944.501953	9632.644531
942.750000	9650.544922
940.996094	9668.436523
939.244141	9744.774414
937.490234	9555.952148
935.734375	9856.021484
933.980469	9796.912109
932.224609	9803.354492
930.470703	9653.132813
928.714844	9876.031250
926.958984	9822.660156
925.201172	9790.661133
923.445313	9741.598633
921.687500	9928.717773
919.929688	9889.602539
918.171875	9868.989258
916.414063	9925.159180
914.654297	9886.067383
912.894531	9792.989258
911.136719	9765.307617
909.375000	9864.064453
907.615234	9958.516602
905.855469	9822.903320
904.093750	10074.898438
902.332031	9847.062500
900.570313	9991.099609
898.808594	9817.289063
897.044922	10006.657227
895.283203	9813.063477
893.519531	9820.875000
891.755859	9930.740234
889.992188	9981.037109
888.226563	9899.544922
886.462891	9870.498047
884.697266	9927.855469
882.931641	9976.690430
881.166016	10094.870117
879.398438	9890.303711
877.632813	9899.494141
875.865234	9881.798828
874.097656	9954.633789
872.330078	10052.890625
870.562500	9995.584961
868.792969	10035.835938
867.023438	10129.770508
865.253906	10034.335938
863.484375	10135.291016
861.714844	10128.869141
859.943359	10020.787109
858.173828	9984.746094
856.402344	10036.224609
854.628906	10114.491211
852.857422	9914.803711
851.085938	10122.822266
849.312500	9913.346680
847.539063	10180.488281
845.765625	10088.081055
843.992188	9939.343750
842.216797	9914.655273
840.441406	10018.163086
838.667969	10093.458008
836.892578	10172.944336
835.115234	10015.899414
833.339844	10138.997070
831.562500	10174.799805
829.785156	10103.668945
828.007813	10008.658203
826.230469	10237.112305
824.451172	10104.153320
822.673828	10090.726563
820.894531	10275.449219
819.115234	10159.425781
817.335938	10261.176758
815.554688	10289.855469
813.775391	10172.498047
811.994141	10199.778320
810.212891	10177.925781
808.431641	10077.503906
806.648438	10354.494141
804.867188	10186.753906
803.083984	10237.836914
801.300781	10267.868164
799.515625	10213.787109
797.732422	10266.230469
795.947266	10509.191406
794.164063	10254.785156
792.378906	10284.777344
790.591797	10447.767578
788.806641	10224.333984
787.019531	10378.868164
785.234375	10387.815430
783.447266	10424.737305
781.658203	10439.264648
779.871094	10413.233398
778.082031	10342.476563
776.294922	10411.520508
774.505859	10290.486328
772.716797	10425.173828
770.925781	10552.818359
769.136719	10454.174805
767.345703	10368.138672
765.554688	10392.415039
763.763672	10299.450195
761.970703	10457.676758
760.179688	10254.533203
758.386719	10379.226563
756.593750	10496.894531
754.800781	10397.033203
753.005859	10563.426758
751.212891	10492.856445
749.417969	10525.411133
747.623047	10530.093750
745.828125	10409.442383
744.033203	10494.897461
742.236328	10613.722656
740.439453	10486.170898
738.642578	10564.594727
736.845703	10492.750000
735.048828	10400.075195
733.250000	10435.360352
731.451172	10544.308594
729.652344	10482.256836
727.853516	10350.753906
726.054688	10379.071289
724.253906	10515.712891
722.455078	10428.722656
720.654297	10648.593750
718.853516	10631.012695
717.050781	10507.970703
715.250000	10487.652344
713.447266	10432.663086
711.644531	10523.315430
709.841797	10407.333984
708.037109	10418.935547
706.234375	10513.687500
704.429688	10522.488281
702.625000	10424.613281
700.820313	10612.097656
699.013672	10554.401367
697.208984	10599.178711
695.402344	10563.655273
693.595703	10612.560547
691.789063	10462.215820
689.982422	10426.744141
688.173828	10532.344727
686.365234	10485.810547
684.556641	10466.942383
682.748047	10582.137695
680.939453	10426.464844
679.128906	10602.399414
677.318359	10503.414063
675.507813	10672.350586
673.697266	10554.064453
671.886719	10504.840820
670.074219	10579.830078
668.261719	10519.583008
666.449219	10623.500000
664.636719	10586.711914
662.824219	10621.632813
661.009766	10551.777344
659.195313	10509.514648
657.380859	10486.558594
655.566406	10445.704102
653.751953	10630.730469
651.935547	10549.930664
650.119141	10476.047852
648.302734	10574.237305
646.486328	10637.981445
644.669922	10620.530273
642.851563	10642.973633
641.033203	10413.759766
639.214844	10491.229492
637.396484	10488.942383
635.578125	10573.231445
633.757813	10491.239258
631.937500	10602.961914
630.117188	10520.997070
628.296875	10525.567383
626.474609	10524.644531
624.654297	10542.935547
622.832031	10395.190430
621.009766	10495.809570
619.185547	10471.575195
617.363281	10576.245117
615.539063	10460.150391
613.714844	10467.461914
611.890625	10456.956055
610.066406	10495.774414
608.242188	10320.897461
606.416016	10539.122070
604.589844	10379.371094
602.763672	10431.857422
600.937500	10415.894531
599.109375	10443.720703
597.281250	10527.619141
595.453125	10473.349609
593.625000	10585.917969
591.796875	10371.714844
589.966797	10414.550781
588.138672	10389.045898
586.308594	10441.420898
584.478516	10309.383789
582.646484	10457.339844
580.816406	10545.160156
578.984375	10496.447266
577.152344	10455.942383
575.320313	10448.198242
573.486328	10542.761719
571.654297	10384.988281
569.820313	10497.247070
567.986328	10515.398438
566.152344	10442.229492
564.316406	10498.535156
562.482422	10396.792969
560.646484	10435.376953
558.810547	10371.818359
556.974609	10399.499023
555.136719	10433.971680
553.300781	10314.661133
551.462891	10501.509766
549.625000	10420.320313
547.785156	10366.363281
545.947266	10354.576172
544.107422	10273.470703
542.267578	10400.324219
540.427734	10376.306641
538.587891	10211.027344
536.748047	10427.443359
534.906250	10290.737305
533.064453	10230.110352
531.222656	10120.649414
529.378906	10250.051758
527.537109	10155.555664
525.693359	10092.295898
523.849609	10202.632813
522.005859	10150.234375
520.162109	10073.460938
518.316406	10050.925781
516.470703	10039.238281
514.625000	10080.381836
512.779297	10036.189453
510.933594	10059.712891
509.085938	10023.665039
507.238281	9986.279297
505.390625	9973.264648
503.542969	10037.360352
501.695313	9920.200195
499.845703	9859.879883
497.996094	9926.661133
496.146484	10029.903320
494.296875	9993.919922
492.447266	9976.865234
490.595703	10100.287109
488.744141	9904.966797
486.892578	9793.435547
485.041016	9985.652344
483.187500	9913.286133
481.333984	9878.728516
479.480469	9834.743164
477.626953	9848.765625
475.773438	9877.612305
473.917969	9825.565430
472.064453	9853.055664
470.208984	9701.328125
468.351563	9891.833008
466.496094	9683.595703
464.638672	9700.318359
462.783203	9618.758789
460.925781	9679.902344
459.066406	9736.981445
457.208984	9615.105469
455.349609	9688.312500
453.490234	9621.634766
451.630859	9521.373047
449.771484	9774.666992
447.912109	9566.907227
446.050781	9539.274414
444.189453	9679.561523
442.328125	9709.662109
440.466797	9428.249023
438.603516	9385.902344
436.740234	9597.227539
434.876953	9481.062500
433.013672	9389.095703
431.150391	9388.369141
429.285156	9354.120117
427.419922	9365.465820
425.554688	9459.905273
423.689453	9460.501953
421.824219	9227.986328
419.957031	9349.180664
418.089844	9297.572266
416.222656	9310.250977
414.355469	9243.949219
412.488281	9247.264648
410.619141	9215.791992
408.750000	9311.409180
406.880859	9162.247070
405.011719	9231.091797
403.140625	9180.932617
401.269531	9176.235352
399.398438	9111.411133
397.527344	9120.088867
395.656250	9090.029297
393.783203	9088.024414
391.910156	9303.625000
390.037109	9053.316406
388.164063	9052.653320
386.291016	8979.947266
384.416016	8892.600586
382.541016	8977.317383
380.666016	8946.004883
378.791016	8844.059570
376.914063	8820.784180
375.039063	8833.493164
373.162109	8923.454102
371.285156	8808.284180
369.406250	8868.917969
367.529297	8753.808594
365.650391	8837.051758
363.771484	8767.239258
361.892578	8749.338867
360.011719	8732.775391
358.132813	8655.052734
356.251953	8776.775391
354.371094	8746.923828
352.490234	8663.932617
350.607422	8554.406250
348.724609	8652.132813
346.841797	8590.462891
344.958984	8465.091797
343.076172	8586.664063
341.193359	8584.764648
339.308594	8336.086914
337.423828	8408.526367
335.539063	8380.142578
333.652344	8355.748047
331.767578	8426.807617
329.880859	8288.436523
327.994141	8286.602539
326.107422	8309.937500
324.218750	8305.450195
322.330078	8320.825195
320.443359	8156.151367
318.552734	8203.316406
316.664063	8143.277344
314.775391	8105.754395
312.884766	8089.409668
310.994141	8169.604980
309.103516	8137.387695
307.210938	8010.015625
305.320313	8018.812988
303.427734	7961.545898
301.535156	7978.274902
299.642578	7961.979980
297.748047	7969.457520
295.853516	7833.048340
293.960938	7938.210938
292.064453	7973.395508
290.169922	7826.520996
288.275391	7728.509277
286.378906	7819.095215
284.482422	7744.855957
282.585938	7749.728516
280.687500	7700.572754
278.791016	7638.264160
276.892578	7624.715820
274.994141	7540.064941
273.095703	7533.125977
271.195313	7560.411133
269.294922	7490.304688
267.396484	7564.949707
265.494141	7614.569336
263.593750	7407.729492
261.691406	7520.469727
259.791016	7359.748535
257.888672	7381.769531
255.986328	7394.583496
254.082031	7424.467285
252.177734	7389.985840
250.275391	7204.521973
248.371094	7335.506836
246.464844	7151.448730
244.560547	7117.056152
242.654297	7167.948730
240.748047	7085.039063
238.841797	7190.988281
236.935547	7091.066895
235.027344	7060.655762
233.119141	7090.535156
231.210938	6948.777832
229.302734	7015.343262
227.392578	6998.068848
225.484375	6941.524902
223.574219	6864.062500
221.664063	6941.054688
219.751953	6867.551270
217.841797	6843.786133
215.929688	6795.183594
214.017578	6896.962402
212.105469	6645.754395
210.193359	6751.441406
208.279297	6779.990234
206.365234	6740.598145
204.451172	6869.700195
202.537109	6605.717773
200.621094	6648.631836
198.705078	6591.029785
196.789063	6657.415039
194.873047	6594.617188
192.957031	6462.720215
191.039063	6394.776855
189.123047	6492.433594
187.203125	6504.020996
185.285156	6410.050293
183.367188	6391.685059
181.447266	6457.992676
179.527344	6343.257324
177.607422	6365.278809
175.687500	6375.574707
173.765625	6198.467285
171.843750	6320.688477
169.921875	6236.028320
168.000000	6268.450684
166.078125	6181.238281
164.154297	6049.866699
162.230469	5999.130859
160.306641	5965.308594
158.382813	6044.519531
156.457031	6022.390137
154.531250	5935.346680
152.605469	5904.164063
150.679688	5813.291016
148.753906	5910.611816
146.826172	5782.154785
144.898438	5874.250000
142.970703	5849.597168
141.042969	5852.180176
139.113281	5843.096680
137.183594	5780.885742
135.253906	5745.909180
133.324219	5641.001953
131.394531	5656.577148
129.462891	5628.124023
127.531250	5408.108887
125.599609	5488.430664
123.667969	5397.928711
121.734375	5264.779297
119.802734	4971.323730
117.869141	4899.098633
115.935547	4645.928711
114.000000	4603.533203
112.066406	4504.303223
110.130859	4441.288574
108.195313	4435.128906
106.257813	4413.477051
104.322266	4260.156738
102.384766	4260.494629
100.447266	4183.409180
