#Wave		#Intensity
3501.405273	1680.466309
3500.167969	1644.110107
3498.929688	1738.712769
3497.691406	1685.890625
3496.453125	1697.685059
3495.213867	1711.493164
3493.975586	1646.598267
3492.736328	1630.148071
3491.497070	1629.840942
3490.256836	1613.399902
3489.017578	1663.505249
3487.777344	1647.063843
3486.537109	1618.535034
3485.296875	1656.519409
3484.055664	1732.771606
3482.814453	1669.996460
3481.573242	1697.878906
3480.332031	1612.983032
3479.089844	1660.998901
3477.848633	1682.828247
3476.606445	1702.636841
3475.363281	1708.352417
3474.121094	1651.699463
3472.877930	1589.033569
3471.634766	1717.441406
3470.391602	1648.754517
3469.147461	1759.010010
3467.904297	1613.964111
3466.660156	1593.564331
3465.416016	1703.767456
3464.170898	1657.244141
3462.926758	1578.603760
3461.681641	1576.297974
3460.436523	1684.413330
3459.190430	1756.356934
3457.945313	1663.708740
3456.699219	1737.635620
3455.453125	1667.093140
3454.206055	1676.807251
3452.959961	1656.437012
3451.712891	1654.119263
3450.465820	1766.065430
3449.218750	1619.422852
3447.970703	1534.954956
3446.722656	1624.821777
3445.474609	1576.440552
3444.226563	1644.235352
3442.978516	1611.887329
3441.729492	1689.659546
3440.480469	1621.286499
3439.231445	1691.022583
3437.981445	1606.668213
3436.731445	1538.349243
3435.481445	1648.062744
3434.231445	1637.752808
3432.981445	1681.428467
3431.730469	1637.133911
3430.479492	1608.844727
3429.228516	1582.564209
3427.977539	1722.111694
3426.725586	1623.912109
3425.473633	1607.628662
3424.221680	1623.298218
3422.969727	1583.065308
3421.716797	1652.623291
3420.463867	1582.466675
3419.210938	1618.080444
3417.958008	1727.487915
3416.704102	1619.462891
3415.450195	1581.270020
3414.196289	1614.863037
3412.942383	1632.497192
3411.687500	1606.280640
3410.433594	1582.066406
3409.178711	1667.429565
3407.922852	1537.648804
3406.667969	1628.962036
3405.412109	1630.644775
3404.156250	1540.757324
3402.900391	1683.764893
3401.643555	1633.698975
3400.386719	1545.851196
3399.129883	1611.200073
3397.873047	1604.928711
3396.616211	1598.659790
3395.358398	1612.273071
3394.100586	1631.844116
3392.842773	1639.484131
3391.583984	1613.344238
3390.326172	1575.295288
3389.067383	1658.414185
3387.808594	1677.957520
3386.548828	1614.107788
3385.289063	1595.937012
3384.030273	1587.696167
3382.769531	1541.757813
3381.509766	1593.046265
3380.249023	1553.074585
3378.988281	1594.425659
3377.727539	1623.864624
3376.466797	1556.156494
3375.205078	1504.329834
3373.943359	1593.217285
3372.681641	1545.365601
3371.419922	1547.053467
3370.157227	1540.818726
3368.894531	1536.566406
3367.631836	1548.153442
3366.369141	1543.901123
3365.105469	1531.734497
3363.842773	1497.807617
3362.578125	1550.935913
3361.314453	1578.331787
3360.050781	1534.527710
3358.786133	1589.595703
3357.521484	1531.968872
3356.255859	1492.151001
3354.991211	1590.667114
3353.725586	1560.731079
3352.459961	1562.410156
3351.194336	1583.837158
3349.927734	1555.893799
3348.661133	1470.711792
3347.394531	1569.119385
3346.127930	1493.833740
3344.860352	1584.307617
3343.593750	1497.211914
3342.326172	1524.538940
3341.057617	1538.052490
3339.790039	1571.275757
3338.521484	1561.121826
3337.252930	1568.708252
3335.984375	1536.884521
3334.714844	1554.322510
3333.446289	1567.814575
3332.176758	1504.500977
3330.906250	1512.090698
3329.636719	1606.291138
3328.366211	1501.675537
3327.095703	1546.648315
3325.825195	1489.300659
3324.554688	1483.116699
3323.283203	1476.934937
3322.011719	1541.540405
3320.740234	1598.257935
3319.467773	1478.058350
3318.195313	1483.672729
3316.922852	1481.425903
3315.650391	1508.645630
3314.377930	1549.603027
3313.104492	1396.144775
3311.831055	1605.948242
3310.557617	1556.570679
3309.283203	1517.024292
3308.009766	1473.568604
3306.735352	1471.326538
3305.460938	1453.394165
3304.185547	1500.182129
3302.911133	1576.362061
3301.635742	1485.889404
3300.359375	1495.406250
3299.083984	1487.283569
3297.807617	1432.144043
3296.531250	1514.140503
3295.254883	1492.309692
3293.978516	1495.941772
3292.701172	1489.784058
3291.423828	1448.397217
3290.146484	1487.259888
3288.869141	1475.237427
3287.590820	1498.430664
3286.312500	1439.471191
3285.034180	1491.993774
3283.754883	1472.159058
3282.476563	1419.102051
3281.197266	1407.105957
3279.917969	1520.166504
3278.637695	1500.341187
3277.357422	1480.523438
3276.078125	1450.948975
3274.796875	1485.816650
3273.516602	1548.000122
3272.235352	1469.636719
3270.954102	1520.091431
3269.672852	1529.556519
3268.391602	1486.351929
3267.109375	1550.425903
3265.827148	1438.989014
3264.544922	1434.815674
3263.262695	1454.033203
3261.979492	1531.705322
3260.696289	1531.413330
3259.413086	1466.837524
3258.128906	1396.443481
3256.845703	1476.014404
3255.561523	1502.989136
3254.277344	1457.932861
3252.992188	1432.354980
3251.707031	1513.803711
3250.422852	1472.661743
3249.136719	1425.700195
3247.851563	1361.254761
3246.565430	1376.549194
3245.279297	1395.725586
3243.993164	1502.353760
3242.707031	1453.487915
3241.419922	1464.867188
3240.132813	1419.911865
3238.845703	1516.743408
3237.557617	1450.436646
3236.270508	1384.155151
3234.982422	1432.414429
3233.694336	1470.952271
3232.405273	1453.209595
3231.116211	1419.954956
3229.827148	1413.865479
3228.538086	1450.437988
3227.249023	1424.957642
3225.958984	1438.253906
3224.668945	1445.731079
3223.378906	1416.390747
3222.087891	1423.869019
3220.797852	1479.766113
3219.506836	1396.213989
3218.215820	1343.671753
3216.923828	1355.029541
3215.631836	1397.348999
3214.339844	1433.847168
3213.047852	1454.854248
3211.755859	1394.613525
3210.462891	1450.430176
3209.169922	1347.675415
3207.876953	1399.613281
3206.583008	1385.816040
3205.289063	1377.821289
3203.995117	1321.528076
3202.701172	1367.635864
3201.407227	1365.442993
3200.112305	1374.836548
3198.817383	1376.504150
3197.521484	1376.240723
3196.226563	1399.135620
3194.930664	1292.746826
3193.634766	1265.492065
3192.338867	1311.539429
3191.041992	1403.849976
3189.745117	1388.157349
3188.448242	1372.470703
3187.151367	1395.335083
3185.854492	1350.749512
3184.556641	1331.225708
3183.258789	1408.016846
3181.959961	1340.344849
3180.662109	1386.298218
3179.363281	1287.855347
3178.064453	1387.691895
3176.764648	1314.302490
3175.465820	1333.290161
3174.166016	1346.499756
3172.866211	1402.014648
3171.565430	1357.520874
3170.265625	1349.570923
3168.964844	1268.584229
3167.664063	1291.401978
3166.362305	1283.468994
3165.061523	1283.223022
3163.759766	1317.548340
3162.458008	1232.804565
3161.155273	1299.764404
3159.853516	1407.008301
3158.550781	1353.002319
3157.248047	1322.042358
3155.944336	1319.870483
3154.640625	1357.978394
3153.337891	1305.940552
3152.033203	1294.186279
3150.729492	1318.858398
3149.424805	1335.854614
3148.120117	1327.933594
3146.815430	1304.688721
3145.509766	1314.015747
3144.205078	1283.121948
3142.899414	1300.108398
3141.592773	1340.060791
3140.287109	1337.889648
3138.980469	1339.546509
3137.673828	1224.493286
3136.367188	1339.032471
3135.059570	1279.486816
3133.752930	1325.133301
3132.445313	1257.965820
3131.136719	1309.333008
3129.829102	1297.615234
3128.520508	1243.866455
3127.211914	1363.978638
3125.902344	1218.559204
3124.593750	1321.443604
3123.284180	1223.818848
3121.974609	1282.758667
3120.664063	1238.616821
3119.354492	1284.174072
3118.043945	1392.670166
3116.733398	1258.884521
3115.421875	1268.177734
3114.111328	1210.734009
3112.799805	1292.472412
3111.488281	1286.506226
3110.175781	1234.808594
3108.864258	1249.812866
3107.551758	1285.764526
3106.238281	1262.663696
3104.925781	1311.927612
3103.612305	1275.504395
3102.298828	1261.935547
3100.985352	1164.639648
3099.671875	1183.442017
3098.357422	1261.207642
3097.042969	1291.395630
3095.727539	1294.950317
3094.413086	1192.037720
3093.097656	1212.717285
3091.782227	1220.085815
3090.466797	1198.950195
3089.150391	1185.421509
3087.833984	1209.885010
3086.517578	1253.328735
3085.201172	1251.188965
3083.883789	1175.018066
3082.566406	1189.974976
3081.249023	1210.618652
3079.931641	1191.414063
3078.613281	1255.675537
3077.294922	1211.816040
3075.976563	1150.908813
3074.658203	1196.183838
3073.338867	1161.837524
3072.019531	1163.508789
3070.700195	1242.857910
3069.379883	1221.781982
3068.060547	1223.440552
3066.740234	1173.973633
3065.418945	1205.930908
3064.098633	1086.453613
3062.777344	1201.681396
3061.456055	1171.177124
3060.134766	1182.301514
3058.812500	1206.660889
3057.491211	1147.808716
3056.167969	1192.961670
3054.845703	1122.793457
3053.523438	1126.356689
3052.200195	1211.166870
3050.876953	1201.487671
3049.552734	1165.369507
3048.229492	1214.243286
3046.905273	1159.255981
3045.580078	1187.347534
3044.255859	1104.076904
3042.930664	1185.002686
3041.605469	1135.722900
3040.280273	1177.000610
3038.955078	1135.284790
3037.628906	1195.401489
3036.302734	1136.731934
3034.976563	1217.557373
3033.649414	1164.559204
3032.322266	1104.045288
3030.995117	1105.715942
3029.667969	1167.651733
3028.339844	1159.894531
3027.012695	1176.613892
3025.684570	1200.855591
3024.355469	1155.459229
3023.027344	1168.406616
3021.698242	1149.369751
3020.369141	1145.386230
3019.039063	1115.078613
3017.708984	1154.344116
3016.378906	1116.527588
3015.048828	1153.898193
3013.718750	1195.012207
3012.387695	1200.417114
3011.056641	1102.517578
3009.725586	1107.938110
3008.393555	1149.028931
3007.062500	1122.527100
3005.730469	1111.049438
3004.397461	1170.879883
3003.065430	1050.586548
3001.732422	1162.924561
3000.399414	1162.699829
2999.065430	1143.725464
2997.732422	1077.893433
2996.398438	1060.816895
2995.064453	1092.467529
2993.729492	1150.335205
2992.395508	1114.522827
2991.060547	1080.597168
2989.724609	1100.984863
2988.389648	1087.667480
2987.053711	1141.736328
2985.717773	1149.000854
2984.381836	1139.423706
2983.044922	1154.168091
2981.708984	1105.318237
2980.372070	1127.543091
2979.034180	1155.367798
2977.697266	1091.592529
2976.359375	1087.643677
2975.021484	1078.090942
2973.682617	1068.541870
2972.344727	1133.705078
2971.005859	1013.974792
2969.666016	1146.335083
2968.327148	1080.781006
2966.987305	1056.310181
2965.647461	1071.032837
2964.307617	1123.060791
2962.967773	1111.652222
2961.626953	1120.760986
2960.286133	1064.609985
2958.944336	1073.724243
2957.603516	1142.474731
2956.261719	1106.849121
2954.919922	1041.428833
2953.577148	1024.463135
2952.235352	1083.858154
2950.892578	1065.028687
2949.549805	1150.454834
2948.206055	1113.007568
2946.863281	1088.600708
2945.519531	1054.900757
2944.174805	1062.136719
2942.831055	1095.406738
2941.486328	1095.194336
2940.141602	1091.263794
2938.796875	1066.889282
2937.451172	1062.965698
2936.105469	1125.930542
2934.759766	1062.553345
2933.414063	1038.203003
2932.067383	1071.425537
2930.720703	1015.521790
2929.374023	1032.030273
2928.027344	1055.955566
2926.679688	1035.340698
2925.332031	1055.545776
2923.984375	1053.486206
2922.635742	1060.699219
2921.287109	1082.741455
2919.938477	1036.190063
2918.589844	1128.653320
2917.240234	1058.022827
2915.890625	1028.176270
2914.541016	1037.237671
2913.191406	1031.480713
2911.840820	1057.201294
2910.490234	1060.698242
2909.139648	1010.521423
2907.789063	1041.782104
2906.437500	1076.730713
2905.085938	991.435669
2903.734375	1061.517700
2902.381836	1002.144287
2901.029297	1116.563721
2899.676758	1046.113037
2898.324219	1008.951782
2896.970703	1014.298279
2895.617188	1117.543213
2894.263672	984.354919
2892.910156	1034.017944
2891.555664	1063.354614
2890.201172	1035.461670
2888.846680	1046.332642
2887.491211	1009.228760
2886.135742	1056.993774
2884.780273	1023.590698
2883.424805	1069.490356
2882.068359	977.102844
2880.712891	986.128906
2879.355469	998.837158
2877.999023	1042.863159
2876.641602	1055.555420
2875.284180	972.469116
2873.926758	1051.461792
2872.569336	972.090698
2871.210938	1084.185547
2869.852539	1012.200378
2868.494141	1043.283447
2867.134766	1039.401123
2865.775391	993.216492
2864.416016	1022.446045
2863.056641	992.829773
2861.696289	966.901428
2860.335938	1032.876099
2858.975586	1010.624878
2857.614258	997.568115
2856.253906	1021.252014
2854.892578	1055.945190
2853.530273	965.772095
2852.168945	1015.148193
2850.806641	1104.882690
2849.444336	961.537781
2848.082031	970.523621
2846.718750	1010.688660
2845.355469	1105.855713
2843.992188	986.458374
2842.627930	1021.097107
2841.264648	989.739563
2839.900391	974.886719
2838.535156	1013.171509
2837.170898	985.497314
2835.805664	1034.753540
2834.440430	959.478088
2833.075195	1034.350098
2831.708984	957.273560
2830.342773	1001.006714
2828.976563	1037.404297
2827.609375	1013.421265
2826.243164	918.119507
2824.875977	972.797424
2823.507813	992.717957
2822.140625	1021.769897
2820.772461	964.918152
2819.404297	1023.198303
2818.035156	1037.612915
2816.666992	986.270447
2815.297852	947.730469
2813.928711	1042.482544
2812.558594	1011.247986
2811.189453	1058.500610
2809.819336	1027.274902
2808.448242	966.872864
2807.078125	1004.986633
2805.707031	1012.084656
2804.335938	1013.710266
2802.963867	1011.689392
2801.592773	975.041626
2800.220703	1024.049316
2798.848633	1000.165894
2797.475586	1040.042114
2796.102539	983.385315
2794.729492	968.627380
2793.356445	1057.636353
2791.982422	933.668518
2790.609375	971.698914
2789.234375	996.979248
2787.860352	936.759033
2786.485352	942.031738
2785.110352	992.758240
2783.735352	928.938232
2782.360352	1005.092773
2780.984375	1008.530579
2779.608398	966.546570
2778.231445	962.724670
2776.855469	1026.100098
2775.478516	960.532349
2774.101563	1009.360168
2772.723633	987.382202
2771.346680	941.821899
2769.968750	923.494324
2768.589844	1039.408081
2767.211914	964.846252
2765.833008	935.645203
2764.454102	949.965332
2763.075195	940.716675
2761.695313	958.654541
2760.315430	902.299622
2758.935547	969.148193
2757.554688	1008.803467
2756.174805	968.768738
2754.793945	917.887085
2753.412109	897.796509
2752.031250	1027.920532
2750.649414	996.959961
2749.267578	969.629578
2747.884766	976.674255
2746.502930	925.850525
2745.120117	978.099609
2743.736328	956.216858
2742.353516	999.403259
2740.969727	948.614624
2739.585938	980.946289
2738.202148	973.529358
2736.817383	902.911438
2735.432617	920.789185
2734.047852	958.516113
2732.662109	916.818726
2731.277344	936.487427
2729.891602	900.222778
2728.504883	930.709167
2727.119141	925.116638
2725.732422	998.857910
2724.345703	901.319519
2722.958008	982.245605
2721.571289	947.816223
2720.183594	940.423950
2718.794922	934.835815
2717.407227	994.081177
2716.018555	990.285095
2714.629883	946.886841
2713.241211	962.899353
2711.851563	968.108765
2710.461914	895.954529
2709.072266	956.936279
2707.681641	929.772461
2706.291016	965.550842
2704.900391	954.575134
2703.509766	963.374451
2702.119141	905.681702
2700.727539	957.606262
2699.334961	916.103760
2697.943359	951.842407
2696.550781	949.859863
2695.158203	832.983765
2693.765625	960.256042
2692.372070	859.574341
2690.979492	995.762085
2689.584961	930.989197
2688.191406	927.219299
2686.796875	961.106201
2685.402344	908.927368
2684.007813	874.693115
2682.613281	962.331726
2681.217773	899.433044
2679.822266	868.803345
2678.425781	927.735413
2677.030273	932.924927
2675.633789	954.225037
2674.237305	946.877625
2672.839844	932.374756
2671.442383	921.455994
2670.044922	948.107971
2668.647461	960.441223
2667.249023	919.124207
2665.850586	926.094727
2664.452148	911.612732
2663.053711	943.601563
2661.654297	991.658813
2660.254883	873.559875
2658.855469	909.109375
2657.455078	901.787598
2656.054688	894.468628
2654.654297	944.273010
2653.252930	878.054565
2651.852539	909.999329
2650.451172	913.388123
2649.048828	897.155762
2647.647461	914.811707
2646.245117	914.631592
2644.842773	894.843323
2643.439453	926.746826
2642.037109	890.927185
2640.633789	913.911255
2639.229492	908.387756
2637.826172	961.632874
2636.421875	936.517090
2635.017578	911.411194
2633.613281	923.689819
2632.208008	928.846008
2630.802734	862.838196
2629.397461	964.053894
2627.991211	944.302063
2626.584961	849.882141
2625.178711	931.486267
2623.772461	890.424866
2622.365234	897.357056
2620.958008	863.424866
2619.550781	895.226990
2618.142578	905.705811
2616.735352	875.342957
2615.326172	900.023010
2613.917969	832.401428
2612.508789	951.128296
2611.099609	959.811340
2609.690430	872.706116
2608.281250	906.229370
2606.871094	872.361755
2605.460938	881.053345
2604.049805	861.383179
2602.639648	843.492737
2601.228516	829.152649
2599.817383	905.156799
2598.405273	871.329224
2596.993164	890.634277
2595.581055	893.999084
2594.168945	854.883728
2592.755859	884.798035
2591.342773	905.854309
2589.929688	932.208862
2588.516602	921.413452
2587.102539	875.258301
2585.688477	887.460327
2584.273438	894.355042
2582.859375	849.999573
2581.444336	941.705322
2580.028320	939.752747
2578.613281	860.092407
2577.197266	819.310059
2575.781250	909.183838
2574.365234	868.407837
2572.948242	892.942078
2571.531250	905.116089
2570.114258	931.397278
2568.696289	885.357971
2567.278320	872.839722
2565.860352	897.348633
2564.442383	918.322571
2563.023438	902.280518
2561.604492	880.959045
2560.185547	850.838135
2558.766602	813.684143
2557.346680	892.762451
2555.926758	882.022705
2554.505859	807.920776
2553.084961	862.315613
2551.665039	885.018188
2550.243164	833.828247
2548.822266	877.632813
2547.400391	914.386230
2545.978516	900.140503
2544.555664	898.204590
2543.133789	859.364197
2541.710938	883.792603
2540.287109	911.724731
2538.864258	890.468079
2537.440430	879.755737
2536.016602	865.536255
2534.591797	907.492126
2533.167969	858.173584
2531.743164	910.641846
2530.317383	899.935913
2528.892578	880.464539
2527.466797	873.275818
2526.041016	846.804504
2524.614258	848.389587
2523.187500	865.746704
2521.760742	846.301147
2520.333984	891.680969
2518.906250	912.522034
2517.479492	872.065002
2516.050781	880.646057
2514.623047	908.478516
2513.194336	880.296875
2511.765625	911.617737
2510.336914	811.721252
2508.907227	923.499573
2507.477539	804.404480
2506.047852	837.463684
2504.617188	884.493896
2503.186523	847.617493
2501.755859	889.384949
2500.325195	864.750854
2498.893555	843.619751
2497.461914	838.213562
2496.030273	850.268738
2494.597656	855.336731
2493.166016	863.893127
2491.732422	842.782959
2490.299805	825.170166
2488.866211	859.890320
2487.432617	905.059814
2485.999023	796.782654
2484.564453	878.552979
2483.130859	836.550964
2481.695313	805.020386
2480.260742	878.029663
2478.825195	876.113464
2477.389648	827.179382
2475.954102	887.953003
2474.517578	866.887695
2473.081055	896.302124
2471.644531	868.283264
2470.207031	859.412231
2468.770508	864.459473
2467.332031	839.941528
2465.894531	862.377197
2464.456055	883.065613
2463.017578	841.178711
2461.579102	908.778931
2460.140625	872.115356
2458.701172	833.729309
2457.261719	830.090332
2455.821289	779.574158
2454.380859	885.309021
2452.940430	824.388489
2451.500000	864.134338
2450.058594	874.371643
2448.617188	848.179871
2447.175781	860.150330
2445.734375	936.267700
2444.291992	837.272766
2442.849609	849.238159
2441.407227	857.733093
2439.963867	838.505432
2438.520508	815.821167
2437.077148	890.124451
2435.632813	844.930420
2434.188477	808.409729
2432.744141	820.363831
2431.299805	879.033447
2429.854492	792.356567
2428.409180	816.414490
2426.963867	816.251892
2425.517578	864.501343
2424.071289	810.740723
2422.625000	817.492493
2421.177734	870.896667
2419.730469	846.536377
2418.283203	815.276672
2416.835938	846.199036
2415.387695	795.959229
2413.939453	864.850525
2412.491211	869.855896
2411.041992	835.171265
2409.593750	862.608215
2408.143555	829.663696
2406.693359	812.252991
2405.244141	858.644043
2403.794922	811.929077
2402.343750	844.513611
2400.892578	799.543213
2399.441406	801.106567
2397.990234	847.453308
2396.539063	871.393982
2395.085938	869.498352
2393.634766	809.074646
2392.181641	788.260132
2390.728516	824.238525
2389.275391	824.074036
2387.822266	810.149109
2386.369141	852.980347
2384.914063	830.458252
2383.460938	835.449524
2382.005859	792.315552
2380.550781	866.046204
2379.095703	841.821289
2377.640625	882.877014
2376.183594	851.789001
2374.728516	782.939941
2373.271484	834.282471
2371.814453	827.250732
2370.357422	813.357910
2368.900391	808.048584
2367.443359	814.748230
2365.986328	799.151184
2364.527344	762.985413
2363.068359	872.543762
2361.611328	788.388855
2360.152344	820.788696
2358.693359	865.167908
2357.232422	830.737732
2355.773438	864.822083
2354.312500	816.708191
2352.851563	787.443726
2351.392578	790.709290
2349.931641	790.551147
2348.468750	821.187622
2347.007813	791.945435
2345.546875	829.409790
2344.083984	767.691772
2342.621094	782.923157
2341.158203	806.693848
2339.695313	768.939880
2338.232422	761.952332
2336.769531	818.166260
2335.304688	835.079834
2333.839844	792.227966
2332.375000	831.331482
2330.910156	880.659485
2329.445313	858.300537
2327.980469	851.304626
2326.515625	847.722778
2325.048828	854.374451
2323.582031	777.478516
2322.115234	773.913513
2320.648438	797.618896
2319.181641	753.155884
2317.714844	793.892151
2316.246094	841.425232
2314.779297	762.921021
2313.310547	796.820313
2311.841797	725.165527
2310.373047	852.664612
2308.904297	806.550964
2307.433594	740.040833
2305.964844	710.977173
2304.494141	744.845886
2303.023438	759.998596
2301.552734	797.243591
2300.082031	732.501282
2298.611328	759.541565
2297.138672	801.860718
2295.667969	810.192505
2294.195313	815.124573
2292.722656	857.406982
2291.250000	802.915161
2289.777344	770.508179
2288.302734	773.747192
2286.830078	787.163757
2285.355469	778.525208
2283.880859	829.242737
2282.408203	812.121826
2280.931641	813.653992
2279.457031	791.458618
2277.982422	837.049438
2276.505859	743.706360
2275.029297	792.675903
2273.554688	733.247314
2272.078125	804.209167
2270.599609	778.656677
2269.123047	805.578613
2267.646484	759.731445
2266.167969	784.954529
2264.689453	820.315674
2263.210938	708.542786
2261.732422	782.790955
2260.253906	740.374817
2258.775391	811.206665
2257.294922	765.422485
2255.814453	777.093994
2254.333984	820.851746
2252.853516	810.554810
2251.373047	764.807373
2249.892578	746.085876
2248.412109	722.308960
2246.929688	801.466797
2245.447266	737.201233
2243.964844	735.366394
2242.482422	816.160034
2241.000000	760.359802
2239.517578	723.123596
2238.033203	797.129822
2236.548828	781.805115
2235.066406	764.802002
2233.582031	719.173462
2232.095703	713.977051
2230.611328	801.379028
2229.126953	755.770569
2227.640625	757.301331
2226.154297	790.800049
2224.667969	745.221069
2223.181641	743.389221
2221.695313	781.914917
2220.208984	748.133545
2218.720703	778.238403
2217.234375	764.637512
2215.746094	831.690918
2214.257813	767.689331
2212.769531	754.098633
2211.279297	733.796753
2209.791016	775.619751
2208.300781	803.997864
2206.812500	733.353394
2205.322266	763.406372
2203.832031	771.639954
2202.341797	746.327332
2200.849609	761.268188
2199.359375	709.144409
2197.867188	809.569031
2196.375000	693.776489
2194.882813	765.680969
2193.390625	773.902222
2191.898438	765.372314
2190.404297	726.705933
2188.912109	785.152893
2187.417969	753.193115
2185.923828	744.674072
2184.429688	793.043457
2182.935547	709.245972
2181.439453	819.482117
2179.945313	712.304016
2178.449219	728.877686
2176.953125	733.744812
2175.458984	750.307434
2173.960938	746.814575
2172.464844	756.686218
2170.968750	753.193359
2169.470703	699.610474
2167.972656	792.954407
2166.474609	754.406433
2164.976563	684.168518
2163.478516	792.474243
2161.980469	803.990479
2160.480469	810.498901
2158.982422	708.626465
2157.482422	723.486511
2155.982422	735.007202
2154.482422	819.842407
2152.980469	734.710266
2151.480469	749.552917
2149.978516	757.728149
2148.476563	725.940063
2146.974609	760.751282
2145.472656	763.926208
2143.970703	748.795898
2142.468750	765.281128
2140.964844	738.513306
2139.462891	675.170715
2137.958984	771.467712
2136.455078	738.065491
2134.949219	791.099426
2133.445313	800.909302
2131.941406	747.585693
2130.435547	689.300720
2128.929688	753.925842
2127.423828	775.357178
2125.917969	746.981018
2124.412109	746.829895
2122.906250	696.900208
2121.398438	723.302429
2119.890625	766.280029
2118.382813	784.366028
2116.875000	784.207336
2115.367188	722.717102
2113.859375	735.828979
2112.349609	745.621643
2110.841797	712.338684
2109.332031	768.507507
2107.822266	746.824768
2106.312500	796.341431
2104.800781	763.074951
2103.291016	748.026123
2101.779297	746.220032
2100.269531	703.058228
2098.757813	782.303955
2097.246094	752.380920
2095.732422	780.333740
2094.220703	785.134399
2092.707031	763.491760
2091.195313	728.639893
2089.681641	754.922791
2088.167969	716.783569
2086.654297	799.200256
2085.138672	789.132813
2083.625000	732.853455
2082.109375	750.857483
2080.593750	757.304810
2079.078125	775.296509
2077.562500	763.594666
2076.046875	768.386475
2074.531250	759.987793
2073.013672	718.627930
2071.496094	733.313232
2069.978516	728.221741
2068.460938	703.365601
2066.943359	744.395203
2065.425781	744.244141
2063.906250	681.536621
2062.386719	748.879761
2060.869141	742.145569
2059.349609	705.800049
2057.828125	773.097168
2056.308594	710.447205
2054.789063	715.235596
2053.267578	756.187500
2051.746094	749.459778
2050.224609	798.604126
2048.703125	760.655579
2047.181641	804.849976
2045.658203	725.860046
2044.136719	727.354492
2042.613281	723.923584
2041.089844	740.188721
2039.566406	763.010681
2038.042969	751.371765
2036.517578	767.621216
2034.994141	772.384888
2033.468750	723.041382
2031.943359	763.874878
2030.417969	757.164063
2028.892578	724.239075
2027.367188	678.221802
2025.839844	740.323486
2024.314453	718.884766
2022.787109	730.199097
2021.259766	743.145691
2019.732422	767.542786
2018.203125	715.027649
2016.675781	750.871704
2015.146484	740.905640
2013.619141	708.050476
2012.089844	729.159912
2010.560547	730.646118
2009.029297	741.937012
2007.500000	751.589355
2005.968750	785.741028
2004.439453	730.051453
2002.908203	702.143677
2001.376953	770.568237
1999.843750	731.237915
1998.312500	698.451111
1996.781250	727.677002
1995.248047	675.329468
1993.714844	729.011536
1992.181641	750.060425
1990.648438	762.949524
1989.115234	722.046570
1987.580078	686.048889
1986.044922	739.673950
1984.511719	772.101379
1982.976563	727.972534
1981.441406	685.489868
1979.904297	719.536316
1978.369141	696.603516
1976.832031	688.325317
1975.294922	697.946472
1973.759766	705.937134
1972.220703	681.399414
1970.683594	741.419495
1969.146484	734.765930
1967.607422	664.730042
1966.068359	727.966553
1964.531250	703.449158
1962.992188	695.184387
1961.451172	740.512634
1959.912109	725.749146
1958.371094	736.963989
1956.832031	697.863098
1955.291016	705.833679
1953.750000	692.711487
1952.208984	692.570068
1950.666016	788.103882
1949.125000	700.393799
1947.582031	714.839355
1946.039063	711.452148
1944.496094	693.483704
1942.953125	733.841064
1941.410156	761.224915
1939.865234	689.820374
1938.322266	712.345032
1936.777344	704.106323
1935.232422	716.908936
1933.687500	664.987305
1932.142578	687.498474
1930.595703	713.234985
1929.050781	758.364746
1927.503906	711.326843
1925.957031	738.658936
1924.410156	720.732056
1922.863281	748.051025
1921.314453	673.592896
1919.767578	723.520203
1918.218750	729.830933
1916.669922	694.166199
1915.121094	689.182251
1913.572266	697.109680
1912.021484	713.100647
1910.472656	696.824585
1908.921875	740.224670
1907.371094	728.786743
1905.820313	717.353455
1904.269531	689.807739
1902.718750	712.225769
1901.166016	678.248169
1899.615234	710.323608
1898.062500	695.684814
1896.509766	710.032898
1894.957031	692.180603
1893.402344	735.492493
1891.849609	672.588440
1890.294922	714.277832
1888.740234	707.697937
1887.185547	707.553040
1885.630859	643.098328
1884.076172	728.159668
1882.519531	697.475830
1880.964844	703.760010
1879.408203	676.306580
1877.851563	637.621582
1876.294922	712.962158
1874.736328	691.945374
1873.179688	720.695557
1871.621094	701.290466
1870.064453	715.586853
1868.505859	680.149414
1866.947266	750.577026
1865.386719	716.750305
1863.828125	702.175110
1862.267578	660.358093
1860.708984	757.974060
1859.148438	708.151855
1857.587891	708.006653
1856.025391	706.259949
1854.464844	707.716248
1852.902344	710.772766
1851.341797	697.822815
1849.779297	702.480225
1848.216797	745.532166
1846.652344	682.997620
1845.089844	714.841431
1843.525391	695.508301
1841.962891	679.380127
1840.398438	693.624573
1838.833984	664.720276
1837.267578	742.864075
1835.703125	705.975281
1834.136719	667.504700
1832.572266	676.947083
1831.005859	646.479431
1829.439453	705.395569
1827.873047	705.250671
1826.304688	662.033752
1824.738281	641.163574
1823.169922	666.545593
1821.601563	711.048462
1820.033203	653.520081
1818.464844	752.190491
1816.896484	656.438110
1815.326172	715.243042
1813.755859	673.687317
1812.185547	635.333313
1810.615234	754.601746
1809.044922	727.388367
1807.474609	739.969482
1805.902344	647.539001
1804.332031	687.172791
1802.759766	701.344604
1801.187500	691.660217
1799.615234	675.621033
1798.041016	643.694641
1796.468750	668.986877
1794.894531	686.325134
1793.320313	727.481995
1791.746094	671.750122
1790.171875	676.375122
1788.597656	685.760376
1787.021484	669.748413
1785.445313	718.799927
1783.871094	659.954102
1782.294922	664.576538
1780.716797	715.184509
1779.140625	676.986511
1777.564453	732.326355
1775.986328	651.350952
1774.408203	701.919861
1772.830078	744.547119
1771.251953	682.624878
1769.673828	685.651245
1768.093750	666.512024
1766.513672	655.294861
1764.935547	720.042786
1763.355469	768.942139
1761.773438	631.161926
1760.193359	676.896301
1758.613281	690.987671
1757.031250	676.617249
1755.449219	690.702759
1753.867188	692.140625
1752.285156	685.678284
1750.701172	709.230530
1749.119141	686.974792
1747.535156	658.412415
1745.951172	704.056030
1744.367188	664.453918
1742.783203	708.499451
1741.199219	668.912659
1739.613281	681.393066
1738.029297	703.330078
1736.443359	698.455017
1734.857422	692.005554
1733.271484	679.254761
1731.683594	686.992920
1730.097656	693.152527
1728.509766	697.734497
1726.921875	710.187988
1725.333984	676.979553
1723.746094	709.894775
1722.158203	668.831421
1720.568359	693.867615
1718.978516	663.835938
1717.390625	682.571777
1715.800781	721.741333
1714.208984	650.847900
1712.619141	693.151245
1711.027344	650.578979
1709.437500	699.149292
1707.845703	710.000427
1706.253906	697.289856
1704.662109	708.136780
1703.068359	687.582703
1701.476563	670.176086
1699.882813	671.606689
1698.289063	676.174377
1696.695313	690.151306
1695.101563	694.713196
1693.505859	663.211975
1691.912109	700.696106
1690.316406	702.118408
1688.720703	648.698425
1687.125000	701.827942
1685.529297	656.261292
1683.933594	656.125549
1682.335938	676.342651
1680.738281	660.549866
1679.140625	669.802917
1677.542969	680.616760
1675.945313	647.625305
1674.347656	681.898987
1672.748047	658.302856
1671.148438	680.053345
1669.548828	665.845337
1667.949219	692.273254
1666.349609	651.508301
1664.748047	657.621521
1663.148438	643.429810
1661.546875	690.138550
1659.945313	691.556641
1658.343750	625.861755
1656.742188	655.380249
1655.138672	722.328979
1653.537109	684.744507
1651.933594	658.091797
1650.330078	689.138123
1648.726563	665.613098
1647.121094	668.592102
1645.517578	674.686157
1643.912109	640.273743
1642.306641	641.698486
1640.701172	641.565430
1639.095703	695.922974
1637.490234	664.647644
1635.884766	664.509766
1634.277344	616.138855
1632.669922	598.899597
1631.062500	634.546387
1629.455078	667.068420
1627.845703	691.803833
1626.238281	613.945618
1624.628906	635.573792
1623.019531	713.124268
1621.410156	694.336365
1619.800781	670.897217
1618.191406	687.837402
1616.580078	648.885620
1614.968750	603.741882
1613.359375	626.892212
1611.746094	665.546814
1610.134766	653.000061
1608.523438	635.806213
1606.910156	655.829651
1605.298828	682.045166
1603.685547	658.656738
1602.070313	667.816650
1600.457031	632.047791
1598.843750	645.855774
1597.228516	655.012512
1595.613281	651.780029
1593.998047	656.288086
1592.382813	631.391235
1590.767578	635.901611
1589.152344	603.284790
1587.535156	641.823425
1585.917969	714.363342
1584.300781	640.010620
1582.683594	678.517456
1581.066406	645.925537
1579.447266	651.971008
1577.828125	661.103210
1576.210938	605.370422
1574.591797	629.948303
1572.970703	652.972290
1571.351563	652.836426
1569.730469	623.383057
1568.111328	663.363647
1566.490234	590.733459
1564.869141	646.124817
1563.248047	661.407776
1561.625000	641.231567
1560.003906	676.543396
1558.380859	673.320923
1556.757813	660.857056
1555.134766	657.639160
1553.511719	646.723450
1551.886719	646.588745
1550.263672	675.698425
1548.638672	649.397095
1547.013672	667.724182
1545.388672	639.897217
1543.761719	678.211243
1542.136719	613.491821
1540.509766	642.571777
1538.882813	665.491821
1537.255859	633.084229
1535.628906	651.387756
1534.001953	618.996582
1532.373047	631.152710
1530.746094	724.676270
1529.117188	667.729797
1527.488281	699.819031
1525.859375	655.176331
1524.228516	662.709900
1522.599609	677.908997
1520.968750	662.433411
1519.337891	611.703247
1517.707031	666.755371
1516.076172	596.123474
1514.443359	674.137756
1512.810547	649.488098
1511.179688	667.730408
1509.546875	638.498779
1507.914063	613.871826
1506.279297	667.312317
1504.646484	612.085327
1503.011719	639.495605
1501.376953	617.947998
1499.742188	743.217896
1498.107422	608.516296
1496.472656	626.732605
1494.835938	606.733826
1493.201172	663.142212
1491.564453	652.310059
1489.927734	603.298950
1488.289063	659.672607
1486.652344	654.954651
1485.013672	612.079041
1483.376953	634.842102
1481.738281	704.893555
1480.099609	623.898743
1478.458984	652.745300
1476.820313	675.480591
1475.179688	678.388306
1473.539063	602.039001
1471.898438	626.294373
1470.257813	583.505066
1468.617188	618.416443
1466.974609	619.809937
1465.333984	586.184021
1463.691406	640.861938
1462.048828	637.684021
1460.406250	649.723389
1458.761719	603.948914
1457.119141	631.199890
1455.474609	614.340698
1453.830078	615.732422
1452.185547	638.403625
1450.539063	592.679260
1448.894531	584.958313
1447.248047	659.269470
1445.603516	648.500244
1443.957031	614.959229
1442.308594	651.264832
1440.662109	661.752930
1439.015625	610.020508
1437.367188	615.961304
1435.718750	573.361023
1434.070313	641.483887
1432.421875	644.381836
1430.771484	609.381653
1429.123047	689.578491
1427.472656	583.367188
1425.822266	619.603027
1424.171875	684.601074
1422.521484	654.171814
1420.869141	604.073669
1419.218750	622.110840
1417.566406	615.927063
1415.914063	605.206726
1414.261719	629.283020
1412.607422	620.076721
1410.955078	622.970764
1409.300781	619.816589
1407.646484	603.060791
1405.992188	645.245422
1404.337891	663.239563
1402.683594	608.723145
1401.027344	634.268127
1399.371094	600.918396
1397.714844	650.606689
1396.058594	612.739807
1394.402344	611.102295
1392.744141	623.042603
1391.087891	636.486084
1389.429688	618.257080
1387.771484	628.680664
1386.113281	613.475464
1384.453125	637.458557
1382.794922	611.711121
1381.134766	635.684387
1379.474609	638.562866
1377.814453	587.233948
1376.154297	594.637634
1374.492188	537.319031
1372.832031	580.844666
1371.169922	677.008179
1369.507813	640.766357
1367.845703	633.112488
1366.181641	581.859924
1364.519531	629.839905
1362.855469	619.187256
1361.191406	626.569885
1359.527344	600.899841
1357.863281	635.317932
1356.199219	597.643860
1354.533203	591.512939
1352.867188	664.936768
1351.201172	616.775452
1349.535156	586.638550
1347.869141	586.515076
1346.201172	610.387207
1344.535156	619.255188
1342.867188	566.656616
1341.199219	589.018982
1339.531250	560.424255
1337.861328	533.339600
1336.193359	599.131836
1334.523438	569.055359
1332.853516	621.337463
1331.183594	618.212830
1329.511719	607.606628
1327.841797	611.967407
1326.169922	571.448181
1324.500000	599.744629
1322.828125	599.618225
1321.154297	572.582031
1319.482422	591.892151
1317.808594	575.329407
1316.136719	587.160522
1314.462891	619.898865
1312.789063	579.445923
1311.113281	628.596130
1309.439453	555.317017
1307.763672	598.481628
1306.087891	602.831848
1304.412109	605.688416
1302.736328	604.069153
1301.060547	580.082275
1299.382813	615.741516
1297.707031	551.516418
1296.029297	624.423340
1294.351563	630.251404
1292.671875	598.835938
1290.994141	582.326965
1289.314453	556.890808
1287.636719	589.524658
1285.957031	599.818909
1284.275391	598.204163
1282.595703	566.835022
1280.914063	584.564636
1279.234375	599.312439
1277.552734	605.133118
1275.871094	584.194336
1274.189453	576.640015
1272.505859	585.433411
1270.822266	574.910828
1269.140625	591.127075
1267.457031	571.698059
1265.771484	553.761902
1264.087891	578.877991
1262.404297	583.207642
1260.718750	642.431335
1259.033203	529.560059
1257.347656	573.939575
1255.662109	625.713928
1253.974609	618.169495
1252.287109	615.074585
1250.601563	586.790405
1248.914063	555.555237
1247.224609	580.617554
1245.537109	601.226746
1243.849609	553.722229
1242.160156	571.367798
1240.470703	541.648621
1238.781250	548.932007
1237.091797	581.360229
1235.400391	538.346924
1233.708984	598.858093
1232.019531	561.772644
1230.328125	564.609741
1228.634766	548.235291
1226.943359	579.144836
1225.250000	562.774109
1223.558594	553.794250
1221.865234	574.347595
1220.171875	578.654419
1218.476563	587.386902
1216.783203	498.730469
1215.087891	563.534546
1213.392578	615.036926
1211.697266	591.313110
1210.001953	570.547852
1208.306641	576.322815
1206.609375	539.359192
1204.912109	581.971924
1203.214844	570.064270
1201.517578	584.670654
1199.820313	609.577637
1198.121094	594.727417
1196.423828	607.847412
1194.724609	606.247009
1193.025391	560.512451
1191.326172	563.335266
1189.625000	530.863953
1187.923828	604.262573
1186.224609	567.386536
1184.523438	642.215881
1182.822266	600.939453
1181.119141	600.811951
1179.417969	565.436462
1177.714844	582.936707
1176.011719	582.812988
1174.308594	581.221497
1172.605469	578.163269
1170.900391	597.112915
1169.197266	595.519348
1167.492188	563.130249
1165.787109	586.469421
1164.080078	581.947266
1162.375000	615.531311
1160.667969	599.282959
1158.962891	618.199707
1157.255859	604.886780
1155.548828	620.865601
1153.839844	600.237793
1152.132813	608.892334
1150.423828	589.739075
1148.714844	610.096558
1147.005859	614.355103
1145.296875	672.722107
1143.585938	615.556091
1141.876953	647.585205
1140.166016	605.063782
1138.455078	647.309814
1136.744141	661.780945
1135.033203	655.797913
1133.320313	633.754456
1131.607422	602.960632
1129.894531	636.404114
1128.181641	636.268738
1126.468750	623.002136
1124.753906	657.878601
1123.041016	625.653809
1121.326172	678.011902
1119.611328	672.036438
1117.896484	682.095642
1116.179688	670.293152
1114.464844	675.977844
1112.748047	688.942749
1111.031250	675.690002
1109.314453	615.853455
1107.595703	659.390503
1105.878906	656.339478
1104.160156	692.574341
1102.441406	702.609558
1100.722656	706.822998
1099.003906	661.596558
1097.283203	671.631836
1095.562500	638.059570
1093.843750	672.798706
1092.123047	665.391174
1090.400391	647.819214
1088.679688	699.960327
1086.957031	694.003540
1085.236328	645.953369
1083.513672	642.913086
1081.789063	664.540405
1080.066406	660.046692
1078.341797	668.607971
1076.619141	623.514343
1074.894531	648.026611
1073.169922	627.596558
1071.443359	650.648315
1069.718750	628.777527
1067.992188	657.613098
1066.265625	669.058167
1064.539063	661.676025
1062.812500	628.240906
1061.085938	655.604553
1059.357422	629.419617
1057.628906	642.304932
1055.900391	614.687622
1054.171875	595.758179
1052.443359	599.968079
1050.712891	592.612915
1048.982422	617.052856
1047.251953	595.249329
1045.521484	603.789001
1043.791016	590.662537
1042.058594	590.536316
1040.328125	583.192383
1038.595703	600.386597
1036.863281	582.943115
1035.128906	600.129944
1033.396484	589.905457
1031.662109	560.939270
1029.927734	570.911194
1028.193359	601.058289
1026.458984	551.933044
1024.724609	582.071167
1022.988281	597.791809
1021.251953	584.702515
1019.515625	584.577454
1017.779297	525.431335
1016.042969	574.252747
1014.304688	529.523254
1012.568359	585.515930
1010.830078	582.513977
1009.089844	592.455322
1007.351563	506.067047
1005.613281	550.517578
1003.873047	605.008545
1002.132813	580.453979
1000.392578	596.130737
998.652344	580.205444
996.910156	537.005859
995.169922	597.183350
993.427734	592.749756
991.685547	563.924377
989.941406	586.757385
988.199219	613.883484
986.455078	549.221985
984.712891	603.584595
982.968750	581.954468
981.222656	543.136597
979.478516	590.301636
977.734375	565.823242
975.988281	564.269775
974.242188	579.899109
972.496094	518.218445
970.748047	569.631775
969.001953	555.200378
967.253906	539.344421
965.505859	537.798462
963.757813	564.853210
962.009766	591.896362
960.259766	583.192993
958.511719	564.489746
956.761719	548.652039
955.011719	534.249512
953.259766	554.129211
951.509766	522.597290
949.757813	572.449585
948.007813	533.790955
946.255859	553.653564
944.501953	576.360840
942.750000	534.873535
940.996094	524.776489
939.244141	503.278015
937.490234	544.506836
935.734375	540.114563
933.980469	530.024963
932.224609	529.911072
930.470703	525.524658
928.714844	559.584839
926.958984	582.241760
925.201172	475.371521
923.445313	522.227112
921.687500	553.413269
919.929688	543.337830
918.171875	575.928040
916.414063	530.308594
914.654297	524.508789
912.894531	522.974915
911.136719	478.816925
909.375000	525.591003
907.615234	566.664063
905.855469	531.044495
904.093750	485.503052
902.332031	560.621216
900.570313	502.322021
898.808594	568.892029
897.044922	526.218262
895.283203	528.941101
893.519531	523.156189
891.755859	511.703888
889.992188	521.513794
888.226563	529.902649
886.462891	558.119446
884.697266	546.669312
882.931641	484.250366
881.166016	522.368164
879.398438	512.348328
877.632813	512.237976
875.865234	485.247955
874.097656	531.819031
872.330078	541.603149
870.562500	496.244751
868.792969	469.281342
867.023438	568.103760
865.253906	505.814178
863.484375	501.467377
861.714844	511.245209
859.943359	453.244019
858.173828	468.674652
856.402344	478.453125
854.628906	513.626465
852.857422	475.425262
851.085938	478.143616
849.312500	478.040466
847.539063	527.281860
845.765625	506.025024
843.992188	563.694519
842.216797	448.040405
840.441406	485.976685
838.667969	530.938171
836.892578	498.439087
835.115234	465.954010
833.339844	458.816345
831.562500	436.203552
829.785156	476.906677
828.007813	471.177704
826.230469	496.387482
824.451172	480.815430
822.673828	514.445740
820.894531	456.717865
819.115234	512.818481
817.335938	507.088959
815.554688	490.126892
813.775391	488.616882
811.994141	491.318817
810.212891	449.108673
808.431641	512.153870
806.648438	498.014557
804.867188	495.101776
803.083984	494.994720
801.300781	527.132507
799.515625	449.928040
797.732422	463.844147
795.947266	533.795715
794.164063	501.463348
792.378906	513.958740
790.591797	492.845612
788.806641	551.531677
787.019531	519.223328
785.234375	477.134308
783.447266	475.632141
781.658203	481.123657
779.871094	436.273499
778.082031	444.567108
776.294922	490.595184
774.505859	511.450043
772.716797	482.000153
770.925781	458.150177
769.136719	462.240417
767.345703	488.667999
765.554688	456.456635
763.763672	474.500397
761.970703	450.677734
760.179688	478.479767
758.386719	502.085693
756.593750	462.934235
754.800781	476.774658
753.005859	432.070496
751.212891	444.518097
749.417969	466.712463
747.623047	458.254059
745.828125	487.398621
744.033203	502.607849
742.236328	476.051544
740.439453	474.556641
738.642578	464.714172
736.845703	418.708466
735.048828	422.789886
733.250000	467.192688
731.451172	442.068573
729.652344	482.278320
727.853516	464.109528
726.054688	425.109833
724.253906	402.794434
722.455078	469.361938
720.654297	442.881531
718.853516	442.785370
717.050781	467.668549
715.250000	480.053955
713.447266	481.336823
711.644531	446.561371
709.841797	467.262390
708.037109	463.002197
706.234375	467.059387
704.429688	458.644135
702.625000	479.324432
700.820313	419.664001
699.013672	463.884094
697.208984	465.167694
695.402344	462.298340
693.595703	471.884613
691.789063	398.455200
689.982422	445.398193
688.173828	407.962402
686.365234	399.577942
684.556641	422.990540
682.748047	432.572662
680.939453	436.623749
679.128906	435.147339
677.318359	410.192505
675.507813	505.379791
673.697266	415.536102
671.886719	470.654388
670.074219	437.433929
668.261719	474.588409
666.449219	456.553955
664.636719	459.212616
662.824219	468.763641
661.009766	457.634247
659.195313	494.743744
657.380859	451.923706
655.566406	469.732971
653.751953	477.893951
651.935547	459.889954
650.119141	462.542999
648.302734	481.710632
646.486328	447.205292
644.669922	485.627899
642.851563	464.890808
641.033203	510.168335
639.214844	438.566650
637.396484	461.837860
635.578125	443.872345
633.757813	457.514740
631.937500	447.799652
630.117188	471.048431
628.296875	451.723419
626.474609	459.861206
624.654297	452.898804
622.832031	473.381836
621.009766	496.599518
619.185547	445.744843
617.363281	466.215942
615.539063	470.226959
613.714844	460.529968
611.890625	443.985535
610.066406	461.698975
608.242188	490.362457
606.416016	471.083405
604.589844	510.685303
602.763672	429.812805
600.937500	478.986084
599.109375	466.567383
597.281250	523.918701
595.453125	475.937012
593.625000	481.302399
591.796875	504.436890
589.966797	501.593201
588.138672	472.788330
586.308594	516.401550
584.478516	499.898560
582.646484	461.554077
580.816406	492.853821
578.984375	522.774963
577.152344	515.837402
575.320313	519.817688
573.486328	473.326202
571.654297	499.134033
569.820313	452.667358
567.986328	509.820984
566.152344	477.000824
564.316406	516.410767
562.482422	562.614685
560.646484	544.786072
558.810547	473.860168
556.974609	498.261108
555.136719	522.651306
553.300781	557.917053
551.462891	506.096832
549.625000	496.464783
547.785156	512.674683
545.947266	464.977020
544.107422	505.653748
542.267578	466.132385
540.427734	494.562744
538.587891	501.246399
536.748047	490.271820
534.906250	487.448822
533.064453	488.699524
531.222656	466.877228
529.378906	508.838928
527.537109	451.749939
525.693359	497.765442
523.849609	452.907928
522.005859	450.097229
520.162109	468.974396
518.316406	451.255005
516.470703	424.059601
514.625000	428.030182
512.779297	448.249725
510.933594	429.196350
509.085938	433.163116
507.238281	442.541443
505.390625	493.859924
503.542969	427.467102
501.695313	435.487976
499.845703	411.053711
497.996094	481.259888
496.146484	468.990234
494.296875	432.403259
492.447266	447.168915
490.595703	417.356079
488.744141	492.885162
486.892578	453.624786
485.041016	453.525177
483.187500	433.183350
481.333984	402.056946
479.480469	411.410858
477.626953	422.109192
475.773438	453.027252
473.917969	454.275696
472.064453	415.092499
470.208984	409.611633
468.351563	452.629150
466.496094	443.101959
464.638672	453.776703
462.783203	421.367584
460.925781	469.728302
459.066406	434.638611
457.208984	443.960388
455.349609	439.827606
453.490234	485.452118
451.630859	416.778564
449.771484	458.355560
447.912109	389.718079
446.050781	423.221313
444.189453	455.366516
442.328125	460.638184
440.466797	437.711365
438.603516	418.821747
436.740234	437.518677
434.876953	419.979156
433.013672	403.788788
431.150391	443.935730
429.285156	430.428986
427.419922	404.862701
425.554688	466.427765
423.689453	423.444580
421.824219	424.691010
419.957031	436.652252
418.089844	433.877777
416.222656	436.459869
414.355469	418.962677
412.488281	414.855591
410.619141	442.861084
408.750000	462.828278
406.880859	438.653778
405.011719	461.287170
403.140625	421.082367
401.269531	411.634186
399.398438	440.939392
397.527344	415.460297
395.656250	395.334808
393.783203	412.606445
391.910156	441.885468
390.037109	423.102081
388.164063	444.359314
386.291016	377.555359
384.416016	406.816162
382.541016	425.395752
380.666016	374.638947
378.791016	438.537384
376.914063	415.785583
375.039063	403.702606
373.162109	412.937866
371.285156	424.832550
369.406250	384.794647
367.529297	433.963165
365.650391	400.595245
363.771484	425.787933
361.892578	396.427399
360.011719	420.279785
358.132813	421.516632
356.251953	388.188202
354.371094	409.368286
352.490234	423.894867
350.607422	451.700287
348.724609	401.127441
346.841797	412.990234
344.958984	422.192474
343.076172	388.915222
341.193359	427.313995
339.308594	415.278595
337.423828	372.739532
335.539063	395.202148
333.652344	377.878174
331.767578	395.027313
329.880859	418.795319
327.994141	396.177490
326.107422	401.388672
324.218750	410.570801
322.330078	385.321472
320.443359	409.065216
318.552734	402.356934
316.664063	422.116577
314.775391	395.563965
312.884766	415.316345
310.994141	396.711151
309.103516	387.368744
307.210938	399.179016
305.320313	385.875641
303.427734	402.965729
301.535156	388.346497
299.642578	404.107788
297.748047	389.494690
295.853516	425.049133
293.960938	405.158875
292.064453	401.110748
290.169922	372.000488
288.275391	402.251770
286.378906	379.746948
284.482422	390.208923
282.585938	347.946991
280.687500	372.905884
278.791016	371.505768
276.892578	383.277313
274.994141	373.974579
273.095703	360.726410
271.195313	406.714325
269.294922	435.574646
267.396484	368.380157
265.494141	330.153198
263.593750	391.887695
261.691406	351.042908
259.791016	393.028198
257.888672	425.795502
255.986328	337.670197
254.082031	411.156830
252.177734	340.146851
250.275391	383.400848
248.371094	376.752045
246.464844	395.042419
244.560547	359.526794
242.654297	331.898071
240.748047	334.447418
238.841797	396.002655
236.935547	371.006104
235.027344	353.884735
233.119141	368.220367
231.210938	383.859711
229.302734	364.127228
227.392578	367.974792
225.484375	356.109924
223.574219	350.794983
221.664063	417.457855
219.751953	307.463226
217.841797	362.333466
215.929688	367.483948
214.017578	356.942322
212.105469	402.614563
210.193359	345.021393
208.279297	381.529633
206.365234	369.687836
204.451172	363.075409
202.537109	370.828979
200.621094	366.830078
198.705078	357.612305
196.789063	386.239685
194.873047	373.107910
192.957031	315.636383
191.039063	382.069672
189.123047	402.843781
187.203125	328.459595
185.285156	375.298737
183.367188	372.609436
181.447266	360.803528
179.527344	349.002869
177.607422	380.172119
175.687500	369.674011
173.765625	353.975037
171.843750	346.089569
169.921875	353.817200
168.000000	366.743378
166.078125	348.458527
164.154297	358.780243
162.230469	334.007050
160.306641	354.722137
158.382813	375.427917
156.457031	346.771240
154.531250	354.484741
152.605469	394.649475
150.679688	371.199219
148.753906	375.009186
146.826172	367.141541
144.898438	350.198181
142.970703	373.461334
141.042969	373.377930
139.113281	366.813721
137.183594	397.832733
135.253906	331.669159
133.324219	393.769165
131.394531	382.026154
129.462891	381.940796
127.531250	392.210846
125.599609	375.299438
123.667969	398.504822
121.734375	386.773712
119.802734	351.769012
117.869141	325.830811
115.935547	345.148315
114.000000	334.731934
112.066406	288.141022
110.130859	302.286652
108.195313	339.673553
106.257813	357.675018
104.322266	344.685425
102.384766	336.864319
100.447266	300.658325
