#Wave		#Intensity
3501.405273	214.097870
3500.167969	149.464554
3498.929688	175.688751
3497.691406	147.389236
3496.453125	177.641235
3495.213867	181.644318
3493.975586	123.091293
3492.736328	145.260727
3491.497070	137.164841
3490.256836	155.289749
3489.017578	175.424194
3487.777344	151.199249
3486.537109	187.451752
3485.296875	161.218430
3484.055664	221.633575
3482.814453	179.287918
3481.573242	161.127304
3480.332031	112.767853
3479.089844	199.319870
3477.848633	150.971436
3476.606445	122.766953
3475.363281	146.890137
3474.121094	120.708855
3472.877930	168.960526
3471.634766	142.784943
3470.391602	172.918167
3469.147461	134.689911
3467.904297	136.674423
3466.660156	176.839417
3465.416016	174.796906
3464.170898	164.720016
3462.926758	134.562912
3461.681641	232.930649
3460.436523	176.672668
3459.190430	194.704712
3457.945313	154.530243
3456.699219	188.611710
3455.453125	132.404510
3454.206055	138.396774
3452.959961	166.445847
3451.712891	202.504303
3450.465820	176.406082
3449.218750	136.288055
3447.970703	188.362625
3446.722656	188.327057
3445.474609	188.291504
3444.226563	206.280441
3442.978516	126.147705
3441.729492	190.186798
3440.480469	166.131821
3439.231445	122.073814
3437.981445	176.073227
3436.731445	222.050400
3435.481445	194.007385
3434.231445	139.978882
3432.981445	205.929993
3431.730469	143.923859
3430.479492	113.918198
3429.228516	193.824142
3427.977539	189.791901
3426.725586	137.822800
3425.473633	141.790848
3424.221680	151.747437
3422.969727	185.655823
3421.716797	167.657425
3420.463867	195.563354
3419.210938	175.574707
3417.958008	171.551926
3416.704102	129.636810
3415.450195	143.570541
3414.196289	217.308731
3412.942383	161.455765
3411.687500	181.354263
3410.433594	109.588982
3409.178711	153.395554
3407.922852	151.374756
3406.667969	129.440750
3405.412109	189.146835
3404.156250	173.185898
3402.900391	139.318604
3401.643555	149.241684
3400.386719	200.940765
3399.129883	183.000504
3397.873047	157.111984
3396.616211	171.000916
3395.358398	206.752655
3394.100586	190.812469
3392.842773	149.044022
3391.583984	164.910812
3390.326172	228.447601
3389.067383	166.834473
3387.808594	182.688858
3386.548828	131.034576
3385.289063	202.469620
3384.030273	164.723480
3382.769531	186.518967
3381.509766	166.644943
3380.249023	184.464798
3378.988281	164.598679
3377.727539	200.256805
3376.466797	190.307037
3375.205078	206.126877
3373.943359	170.418762
3372.681641	164.442749
3371.419922	190.162781
3370.157227	186.165756
3368.894531	174.249802
3367.631836	172.237015
3366.369141	114.802910
3365.105469	158.318802
3363.842773	178.074875
3362.578125	199.801682
3361.314453	178.007339
3360.050781	193.793442
3358.786133	162.122940
3357.521484	213.487274
3356.255859	179.848663
3354.991211	193.646423
3353.725586	183.731644
3352.459961	199.498642
3351.194336	219.209381
3349.927734	232.989166
3348.661133	199.385086
3347.394531	236.848206
3346.127930	222.989716
3344.860352	189.406631
3343.593750	205.151566
3342.326172	173.556824
3341.057617	205.073669
3339.790039	201.091751
3338.521484	218.793579
3337.252930	242.400909
3335.984375	232.503036
3334.714844	218.668945
3333.446289	236.353958
3332.176758	189.047241
3330.906250	218.544357
3329.636719	171.258972
3328.366211	192.875763
3327.095703	143.645462
3325.825195	198.704575
3324.554688	200.633820
3323.283203	159.296570
3322.011719	133.705048
3320.740234	139.577255
3319.467773	163.136765
3318.195313	176.861664
3316.922852	231.841202
3315.650391	113.934174
3314.377930	166.940750
3313.104492	168.872650
3311.831055	188.473145
3310.557617	135.439316
3309.283203	176.626373
3308.009766	174.630630
3306.735352	178.520966
3305.460938	168.680023
3304.185547	217.673492
3302.911133	162.733902
3301.635742	172.504318
3300.359375	152.872452
3299.083984	158.721954
3297.807617	211.589005
3296.531250	133.197357
3295.254883	156.672943
3293.978516	137.062729
3292.701172	148.782639
3291.423828	191.814774
3290.146484	189.821335
3288.869141	160.436966
3287.590820	191.705231
3286.312500	185.801315
3285.034180	158.389893
3283.754883	132.943970
3282.476563	199.377975
3281.197266	177.842560
3279.917969	175.854736
3278.637695	132.842712
3277.357422	169.928146
3276.078125	199.188141
3274.796875	171.815857
3273.516602	107.364449
3272.235352	173.702087
3270.954102	134.642242
3269.672852	169.733948
3268.391602	175.553391
3267.109375	154.067490
3265.827148	148.188568
3264.544922	163.756134
3263.262695	153.979385
3261.979492	152.001297
3260.696289	128.591949
3259.413086	112.983505
3258.128906	149.966736
3256.845703	116.834908
3255.561523	146.015778
3254.277344	171.292511
3252.992188	130.391006
3251.707031	180.955978
3250.422852	186.757629
3249.136719	184.776978
3247.851563	143.904083
3246.565430	169.152237
3245.279297	165.232147
3243.993164	157.426468
3242.707031	143.794250
3241.419922	149.595200
3240.132813	118.487854
3238.845703	132.059616
3237.557617	133.976074
3236.270508	122.302635
3234.982422	137.806808
3233.694336	141.661636
3232.405273	124.172783
3231.116211	131.908386
3229.827148	106.670227
3228.538086	135.736176
3227.249023	127.955383
3225.958984	188.019714
3224.668945	199.611664
3223.378906	116.256424
3222.087891	156.916183
3220.797852	123.959465
3219.506836	127.808769
3218.215820	145.209488
3216.923828	214.868958
3215.631836	191.603256
3214.339844	94.815811
3213.047852	160.575668
3211.755859	129.596542
3210.462891	172.117722
3209.169922	121.812843
3207.876953	177.851410
3206.583008	160.422226
3205.289063	142.999680
3203.995117	148.768509
3202.701172	160.330200
3201.407227	142.917648
3200.112305	154.476013
3198.817383	108.112526
3197.521484	135.114807
3196.226563	119.650215
3194.930664	131.204163
3193.634766	160.115601
3192.338867	183.229782
3191.041992	138.842316
3189.745117	86.759834
3188.448242	127.223404
3187.151367	132.980820
3185.854492	183.054489
3184.556641	156.048157
3183.258789	171.427490
3181.959961	165.617325
3180.662109	150.182297
3179.363281	144.378403
3178.064453	117.405281
3176.764648	150.096039
3175.465820	142.371521
3174.166016	134.649979
3172.866211	117.315353
3171.565430	161.518066
3170.265625	117.270409
3168.964844	144.157303
3167.664063	124.912392
3166.362305	157.551590
3165.061523	188.257278
3163.759766	57.618732
3162.458008	124.816658
3161.155273	119.033073
3159.853516	153.561615
3158.550781	140.098114
3157.248047	140.071259
3155.944336	140.044403
3154.640625	111.246819
3153.337891	130.402298
3152.033203	118.873405
3150.729492	93.930321
3149.424805	185.908035
3148.120117	120.721230
3146.815430	141.772339
3145.509766	122.590393
3144.205078	118.736664
3142.899414	109.140182
3141.592773	114.862358
3140.287109	112.926308
3138.980469	122.472832
3137.673828	145.408569
3136.367188	105.209694
3135.059570	145.352768
3133.752930	65.013756
3132.445313	143.385162
3131.136719	143.357635
3129.829102	89.820198
3128.520508	154.766800
3127.211914	204.405762
3125.902344	166.167160
3124.593750	137.491241
3123.284180	145.101776
3121.974609	122.167496
3120.664063	125.961029
3119.354492	99.222961
3118.043945	139.267014
3116.733398	188.832672
3115.421875	127.771294
3114.111328	120.120071
3112.799805	108.659180
3111.488281	152.474808
3110.175781	171.501190
3108.864258	97.165329
3107.551758	154.291733
3106.238281	133.312912
3104.925781	137.095490
3103.612305	114.224274
3102.298828	114.202309
3100.985352	114.180351
3099.671875	127.476875
3098.357422	127.452362
3097.042969	199.700363
3095.727539	136.911057
3094.413086	102.663536
3093.097656	114.048653
3091.782227	110.225822
3090.466797	138.705811
3089.150391	172.873978
3087.833984	136.753082
3086.517578	119.635925
3085.201172	87.336403
3083.883789	102.505615
3082.566406	140.443619
3081.249023	94.876068
3079.931641	113.829369
3078.613281	159.330444
3077.294922	119.474823
3075.976563	149.788788
3074.658203	117.533119
3073.338867	162.998413
3072.019531	77.693581
3070.700195	149.673447
3069.379883	119.336845
3068.060547	104.162888
3066.740234	136.332428
3065.418945	151.451294
3064.098633	124.923241
3062.777344	113.544701
3061.456055	117.306923
3060.134766	102.150856
3058.812500	124.826988
3057.491211	119.130066
3056.167969	155.028290
3054.845703	160.669083
3053.523438	128.510498
3052.200195	122.817230
3050.876953	98.234840
3049.552734	124.658646
3048.229492	86.866547
3046.905273	135.938812
3045.580078	86.833046
3044.255859	94.365547
3042.930664	90.573448
3041.605469	77.349899
3040.280273	149.011307
3038.955078	109.379593
3037.628906	150.839294
3036.302734	118.763031
3034.976563	154.550629
3033.649414	160.174011
3032.322266	126.230438
3030.995117	101.718330
3029.667969	169.497833
3028.339844	150.635651
3027.012695	122.367844
3025.684570	163.753036
3024.355469	62.101231
3023.027344	126.059967
3021.698242	92.175308
3020.369141	144.818954
3019.039063	159.834198
3017.708984	142.882980
3016.378906	97.743156
3015.048828	131.551910
3013.718750	62.005348
3012.387695	122.108154
3011.056641	137.110352
3009.725586	108.915947
3008.393555	125.792389
3007.062500	75.085419
3005.730469	103.222504
3004.397461	165.124084
3003.065430	146.331696
3001.732422	127.546570
3000.399414	151.901093
2999.065430	129.372223
2997.732422	174.337540
2996.398438	104.957146
2995.064453	127.423317
2993.729492	138.639740
2992.395508	125.500893
2991.060547	185.405762
2989.724609	88.003891
2988.389648	117.939850
2987.053711	119.788734
2985.717773	106.666199
2984.381836	174.000656
2983.044922	144.037186
2981.708984	157.101074
2980.372070	132.762115
2979.034180	149.562164
2977.697266	125.234070
2976.359375	106.521797
2975.021484	99.027412
2973.682617	72.855125
2972.344727	134.475723
2971.005859	119.510841
2969.666016	134.423660
2968.327148	110.131393
2966.987305	110.110069
2965.647461	113.820564
2964.307617	145.512863
2962.967773	83.933472
2961.626953	130.537888
2960.286133	89.494354
2958.944336	158.448883
2957.603516	76.413483
2956.261719	147.207199
2954.919922	111.781273
2953.577148	113.622276
2952.235352	132.223251
2950.892578	130.335678
2949.549805	106.109917
2948.206055	83.754745
2946.863281	117.233917
2945.519531	81.861786
2944.174805	115.328331
2942.831055	133.903702
2941.486328	92.970657
2940.141602	150.583252
2938.796875	135.684525
2937.451172	120.791550
2936.105469	133.773926
2934.759766	113.314255
2933.414063	78.004517
2932.067383	76.132492
2930.720703	120.674438
2929.374023	105.801666
2928.027344	124.339233
2926.679688	66.796173
2925.332031	90.899376
2923.984375	96.445923
2922.635742	140.932068
2921.287109	129.780655
2919.938477	109.365311
2918.589844	111.197372
2917.240234	116.734573
2915.890625	131.532471
2914.541016	100.019356
2913.191406	125.925835
2911.840820	109.237961
2910.490234	133.281448
2909.139648	72.180099
2907.789063	96.221436
2906.437500	99.902855
2905.085938	110.981606
2903.734375	114.658714
2902.381836	166.407730
2901.029297	147.889236
2899.676758	97.957581
2898.324219	101.634338
2896.970703	155.193176
2895.617188	134.844055
2894.263672	162.520142
2892.910156	103.401802
2891.555664	88.612885
2890.201172	70.138229
2888.846680	147.630722
2887.491211	130.996780
2886.135742	112.524643
2884.780273	132.790146
2883.424805	151.203812
2882.068359	81.117966
2880.712891	117.966820
2879.355469	97.672272
2877.999023	167.668823
2876.641602	136.319550
2875.284180	134.451218
2873.926758	171.253845
2872.569336	117.829178
2871.210938	103.080460
2869.852539	150.909866
2868.494141	145.360474
2867.134766	119.577118
2865.775391	101.160942
2864.416016	136.080948
2863.056641	101.121552
2861.696289	119.484016
2860.335938	165.407196
2858.975586	159.862488
2857.614258	90.019958
2856.253906	137.758804
2854.892578	99.167023
2853.530273	143.213348
2852.168945	111.978371
2850.806641	119.297966
2849.444336	143.129669
2848.082031	148.605698
2846.718750	119.228241
2845.355469	132.042465
2843.992188	97.178986
2842.627930	104.492882
2841.264648	146.628082
2839.900391	130.107056
2838.535156	84.278282
2837.170898	87.925407
2835.805664	91.571114
2834.440430	122.681358
2833.075195	97.027527
2831.708984	73.214043
2830.342773	146.399521
2828.976563	129.904236
2827.609375	76.829773
2826.243164	159.116333
2824.875977	122.513962
2823.507813	142.600372
2822.140625	80.425537
2820.772461	116.959770
2819.404297	107.801247
2818.035156	116.914131
2816.666992	96.800613
2815.297852	71.216736
2813.928711	115.019966
2812.558594	114.997513
2811.189453	146.000076
2809.819336	124.075836
2808.448242	140.470215
2807.078125	114.907730
2805.707031	127.650322
2804.335938	118.509293
2802.963867	133.069061
2801.592773	111.172974
2800.220703	91.107582
2798.848633	103.842361
2797.475586	85.607674
2796.102539	147.507797
2794.729492	116.526604
2793.356445	154.731644
2791.982422	96.460876
2790.609375	151.031860
2789.234375	69.133598
2787.860352	112.774879
2786.485352	123.664398
2785.110352	120.003746
2783.735352	99.983566
2782.360352	89.058853
2780.984375	87.224266
2779.608398	116.276283
2778.231445	114.437080
2776.855469	103.518059
2775.478516	125.286827
2774.101563	78.062027
2772.723633	107.087410
2771.346680	63.514000
2769.968750	114.302834
2768.589844	70.745056
2767.211914	48.967762
2765.833008	110.609215
2764.454102	112.400482
2763.075195	117.816147
2761.695313	135.915100
2760.315430	70.662018
2758.935547	68.836693
2757.554688	132.213028
2756.174805	112.268532
2754.793945	119.488258
2753.412109	76.023094
2752.031250	124.870621
2750.649414	124.846169
2749.267578	128.439743
2747.884766	119.371300
2746.502930	112.114708
2745.120117	119.324532
2743.736328	130.146713
2742.353516	140.964645
2740.969727	117.447525
2739.585938	70.454704
2738.202148	130.044739
2736.817383	153.494949
2735.432617	110.133606
2734.047852	79.425064
2732.662109	138.966614
2731.277344	167.809891
2729.891602	137.108078
2728.504883	162.332993
2727.119141	128.037582
2725.732422	176.693283
2724.345703	106.355705
2722.958008	149.589691
2721.571289	97.304329
2720.183594	86.475769
2718.794922	145.899231
2717.407227	124.260147
2716.018555	156.645096
2714.629883	113.410400
2713.241211	122.387207
2711.851563	106.168060
2710.461914	136.732025
2709.072266	84.541359
2707.681641	95.315163
2706.291016	127.661285
2704.900391	151.006241
2703.509766	185.126053
2702.119141	136.571045
2700.727539	64.678848
2699.334961	150.887680
2697.943359	149.062119
2696.550781	129.281494
2695.158203	141.822678
2693.765625	136.410202
2692.372070	152.534073
2690.979492	116.620789
2689.584961	141.711258
2688.191406	175.759171
2686.796875	136.276245
2685.402344	77.088516
2684.007813	105.751831
2682.613281	125.443611
2681.217773	123.627258
2679.822266	150.473160
2678.425781	121.787659
2677.030273	78.788284
2675.633789	105.627159
2674.237305	152.144806
2672.839844	119.902321
2671.442383	73.358627
2670.044922	78.710854
2668.647461	114.465996
2667.249023	126.960732
2665.850586	98.330521
2664.452148	130.485733
2663.053711	137.608566
2661.654297	169.743393
2660.254883	155.418625
2658.855469	121.452721
2657.455078	146.428879
2656.054688	92.839058
2654.654297	139.231186
2653.252930	124.926460
2651.852539	148.097931
2650.451172	171.260269
2649.048828	155.174057
2647.647461	92.729454
2646.245117	121.237717
2644.842773	94.475494
2643.439453	162.180695
2642.037109	131.857224
2640.633789	112.234718
2639.229492	142.492203
2637.826172	128.217712
2636.421875	97.924789
2635.017578	99.685600
2633.613281	99.665955
2632.208008	119.219696
2630.802734	138.765732
2629.397461	85.377464
2627.991211	151.159454
2626.584961	115.569740
2625.178711	108.436378
2623.772461	78.200981
2622.365234	94.178070
2620.958008	106.595657
2619.550781	147.428253
2618.142578	118.984879
2616.735352	90.552719
2615.326172	110.061981
2613.917969	118.914490
2612.508789	99.371613
2611.099609	113.545151
2609.690430	125.939301
2608.281250	81.578377
2606.871094	124.116516
2605.460938	131.182999
2604.049805	127.612320
2602.639648	136.447357
2601.228516	108.073318
2599.817383	145.250214
2598.405273	109.801651
2596.993164	141.651581
2595.581055	134.542435
2594.168945	141.595642
2592.755859	159.263657
2591.342773	109.693291
2589.929688	157.431854
2588.516602	116.724159
2587.102539	153.833267
2585.688477	111.374504
2584.273438	146.702499
2582.859375	164.345032
2581.444336	125.442917
2580.028320	120.118774
2578.613281	143.054382
2577.197266	155.386398
2575.781250	142.997849
2574.365234	82.957657
2572.948242	148.235443
2571.531250	98.804092
2570.114258	139.356796
2568.696289	79.364754
2567.278320	128.721817
2565.860352	188.637131
2564.442383	142.771835
2563.023438	100.449196
2561.604492	132.143860
2560.185547	176.156967
2558.766602	137.375244
2557.346680	142.630692
2555.926758	116.194611
2554.505859	163.696365
2553.084961	130.227249
2551.665039	135.479919
2550.243164	94.993088
2548.822266	102.009422
2547.400391	121.332016
2545.978516	145.921219
2544.555664	130.072678
2543.133789	151.135620
2541.710938	91.366234
2540.287109	131.752136
2538.864258	189.685501
2537.440430	112.383965
2536.016602	140.452133
2534.591797	149.200836
2533.167969	135.131638
2531.743164	164.933212
2530.317383	96.484360
2528.892578	135.051331
2527.466797	129.763885
2526.041016	157.789658
2524.614258	154.252655
2523.187500	140.201889
2521.760742	66.582703
2520.333984	166.423767
2518.906250	124.355209
2517.479492	239.905441
2516.050781	129.558273
2514.623047	148.787430
2513.194336	168.008957
2511.765625	152.227921
2510.336914	220.424301
2508.907227	241.369217
2507.477539	236.075226
2506.047852	204.557938
2504.617188	244.721634
2503.186523	216.710449
2501.755859	221.909409
2500.325195	178.191086
2498.893555	172.915863
2497.461914	206.060822
2496.030273	157.133850
2494.597656	160.593826
2493.166016	150.090530
2491.732422	148.315842
2490.299805	172.710037
2488.866211	134.303360
2487.432617	123.813576
2485.999023	106.353920
2484.564453	158.627625
2483.130859	182.995529
2481.695313	116.745384
2480.260742	120.206436
2478.825195	134.116776
2477.389648	163.694443
2475.954102	97.500717
2474.517578	118.370209
2473.081055	123.567863
2471.644531	133.983597
2470.207031	86.985046
2468.770508	123.494217
2467.332031	118.252640
2465.894531	125.183792
2464.456055	116.467316
2463.017578	106.016327
2461.579102	126.846771
2460.140625	107.711456
2458.701172	140.691818
2457.261719	119.824760
2455.821289	65.977325
2454.380859	98.946304
2452.940430	102.397728
2451.500000	93.701317
2450.058594	102.356995
2448.617188	126.619904
2447.175781	114.455490
2445.734375	116.166542
2444.291992	119.610397
2442.849609	140.384262
2441.407227	86.639709
2439.963867	128.201248
2438.520508	114.318886
2437.077148	100.442055
2435.632813	98.690643
2434.188477	193.879852
2432.744141	114.227875
2431.299805	96.901321
2429.854492	110.722321
2428.409180	126.267494
2426.963867	84.738014
2425.517578	131.404205
2424.071289	108.905472
2422.625000	107.155464
2421.177734	160.701172
2419.730469	127.844269
2418.283203	110.545990
2416.835938	157.151260
2415.387695	131.221039
2413.939453	119.111153
2412.491211	107.006081
2411.041992	94.905823
2409.593750	117.314720
2408.143555	124.190819
2406.693359	129.339645
2405.244141	82.760872
2403.794922	103.430458
2402.343750	87.898354
2400.892578	103.389206
2399.441406	117.151062
2397.990234	130.907425
2396.539063	142.936172
2395.085938	105.028519
2393.634766	123.943352
2392.181641	104.986610
2390.728516	111.848656
2389.275391	82.579445
2387.822266	123.844452
2386.369141	146.176071
2384.914063	123.795013
2383.460938	79.075470
2382.005859	116.870842
2380.550781	139.186005
2379.095703	125.414192
2377.640625	85.882980
2376.183594	144.254593
2374.728516	77.263809
2373.271484	108.147728
2371.814453	139.019302
2370.357422	163.014771
2368.900391	63.477280
2367.443359	138.936005
2365.986328	118.329254
2364.527344	89.157852
2363.068359	99.425423
2361.611328	123.399994
2360.152344	106.239868
2358.693359	133.629898
2357.232422	138.741776
2355.773438	152.414185
2354.312500	113.003654
2352.851563	136.946732
2351.392578	111.246979
2349.931641	82.135185
2348.468750	130.021378
2347.007813	155.652344
2345.546875	78.665672
2344.083984	160.719437
2342.621094	147.011765
2341.158203	124.764091
2339.695313	129.865402
2338.232422	75.170189
2336.769531	114.440788
2335.304688	122.956535
2333.839844	114.394989
2332.375000	131.442551
2330.910156	179.203964
2329.445313	208.176270
2327.980469	180.838257
2326.515625	112.574860
2325.048828	155.185776
2323.582031	49.444904
2322.115234	158.532944
2320.648438	74.989807
2319.181641	144.837662
2317.714844	126.068710
2316.246094	131.153320
2314.779297	124.315262
2313.310547	141.316422
2311.841797	129.372253
2310.373047	144.663651
2308.904297	85.079216
2307.433594	136.099457
2305.964844	74.839699
2304.494141	125.841545
2303.023438	74.809700
2301.552734	110.492180
2300.082031	125.765877
2298.611328	95.155098
2297.138672	76.448586
2295.667969	105.308037
2294.195313	91.701515
2292.722656	125.639832
2291.250000	79.782265
2289.777344	149.349594
2288.302734	120.473801
2286.830078	134.021423
2285.355469	113.640930
2283.880859	105.139168
2282.408203	125.463501
2280.931641	76.280060
2279.457031	108.465424
2277.982422	81.332741
2276.505859	96.563240
2275.029297	115.175133
2273.554688	135.472946
2272.078125	125.287315
2270.599609	104.949379
2269.123047	133.698975
2267.646484	131.980072
2266.167969	87.969040
2264.689453	167.445877
2263.210938	101.461967
2261.732422	98.060204
2260.253906	147.060760
2258.775391	113.230934
2257.294922	118.277206
2255.814453	94.602753
2254.333984	177.344513
2252.853516	130.026505
2251.373047	114.805519
2249.892578	106.342560
2248.412109	126.572838
2246.929688	97.863319
2245.447266	89.408844
2243.964844	104.570450
2242.482422	109.608269
2241.000000	129.817520
2239.517578	104.507378
2238.033203	101.115829
2236.548828	112.889969
2235.066406	134.766876
2233.582031	116.213043
2232.095703	143.132202
2230.611328	109.432007
2229.126953	65.645996
2227.640625	126.216896
2226.154297	94.222984
2224.667969	153.081528
2223.181641	72.320671
2221.695313	82.395332
2220.208984	137.858307
2218.720703	139.511414
2217.234375	78.984535
2215.746094	110.892120
2214.257813	104.150414
2212.769531	85.654861
2211.279297	119.220985
2209.791016	124.233459
2208.300781	105.745018
2206.812500	92.298485
2205.322266	100.668968
2203.832031	83.873909
2202.341797	132.494064
2200.849609	142.528183
2199.359375	145.852386
2197.867188	125.709480
2196.375000	144.117813
2194.882813	113.930649
2193.390625	137.359268
2191.898438	83.738762
2190.404297	138.978317
2188.912109	100.445999
2187.417969	148.964859
2185.923828	95.385216
2184.429688	97.039070
2182.935547	138.838242
2181.439453	100.344749
2179.945313	117.045265
2178.449219	90.273842
2176.953125	85.241425
2175.458984	110.290176
2173.960938	105.255745
2172.464844	115.256836
2170.968750	116.903625
2169.470703	125.228607
2167.972656	103.501419
2166.474609	130.185181
2164.976563	126.821487
2163.478516	93.428543
2161.980469	121.766190
2160.480469	76.713882
2158.982422	93.371956
2157.482422	76.682907
2155.982422	103.334343
2154.482422	98.314430
2152.980469	113.288658
2151.480469	119.928467
2149.978516	178.191010
2148.476563	109.890007
2146.974609	133.173096
2145.472656	126.488869
2143.970703	88.191521
2142.468750	141.410645
2140.964844	128.075516
2139.462891	128.049622
2137.958984	119.710503
2136.455078	109.712440
2134.949219	129.633942
2133.445313	98.036613
2131.941406	84.726379
2130.435547	86.370209
2128.929688	109.601555
2127.423828	116.220558
2125.917969	86.317810
2124.412109	139.408249
2122.906250	99.557175
2121.398438	104.513885
2119.890625	91.223816
2118.382813	137.637177
2116.875000	107.766335
2115.367188	129.293427
2113.859375	104.408165
2112.349609	102.730095
2110.841797	79.516876
2109.332031	142.438889
2107.822266	99.355850
2106.312500	124.169662
2104.800781	94.349831
2103.291016	125.774300
2101.779297	89.347847
2100.269531	112.489319
2098.757813	119.082207
2097.246094	127.326004
2095.732422	74.396225
2094.220703	112.398186
2092.707031	135.511520
2091.195313	150.354263
2089.681641	125.545143
2088.167969	138.732300
2086.654297	84.213249
2085.138672	100.705238
2083.625000	118.841103
2082.109375	75.910866
2080.593750	163.340256
2079.078125	51.136578
2077.562500	115.446274
2076.046875	102.231682
2074.531250	103.859505
2073.013672	77.466774
2071.496094	141.718964
2069.978516	82.378029
2068.460938	88.950218
2066.943359	85.638390
2065.425781	146.543655
2063.906250	98.773422
2062.386719	92.169823
2060.869141	110.252228
2059.349609	105.294182
2057.828125	121.721680
2056.308594	131.564285
2054.789063	126.604919
2053.267578	115.072014
2051.746094	124.909958
2050.224609	118.311722
2048.703125	77.215576
2047.181641	124.833870
2045.658203	72.257561
2044.136719	103.438675
2042.613281	101.776108
2041.089844	105.037865
2039.566406	114.861824
2038.042969	123.041229
2036.517578	114.815140
2034.994141	106.592392
2033.468750	126.245323
2031.943359	149.168701
2030.417969	132.749542
2028.892578	109.782852
2027.367188	93.378365
2025.839844	129.392822
2024.314453	101.528145
2022.787109	134.251846
2021.259766	93.302429
2019.732422	124.377937
2018.203125	134.169952
2016.675781	125.963226
2015.146484	107.946518
2013.619141	125.911980
2012.089844	111.172371
2010.560547	116.053413
2009.029297	99.687569
2007.500000	133.978973
2005.968750	127.417465
2004.439453	127.391533
2002.908203	88.176186
2001.376953	143.665268
1999.843750	110.991470
1998.312500	114.232658
1996.781250	91.367516
1995.248047	97.873833
1993.714844	122.317375
1992.181641	92.942268
1990.648438	94.553574
1989.115234	125.502449
1987.580078	120.588165
1986.044922	91.237320
1984.511719	96.105446
1982.976563	66.771530
1981.441406	115.605186
1979.904297	125.349083
1978.369141	102.537437
1976.832031	99.262039
1975.294922	104.122551
1973.759766	102.474739
1972.220703	126.847618
1970.683594	125.195839
1969.146484	105.663246
1967.607422	81.262840
1966.068359	76.371490
1964.531250	110.472389
1962.992188	95.831490
1961.451172	95.811943
1959.912109	126.640793
1958.371094	116.875343
1956.832031	98.999184
1955.291016	105.469406
1953.750000	105.447884
1952.208984	115.158020
1950.666016	115.134514
1949.125000	102.140762
1947.582031	119.950371
1946.039063	118.305260
1944.496094	95.597054
1942.953125	82.617867
1941.410156	72.883232
1939.865234	114.970062
1938.322266	67.996567
1936.777344	101.974022
1935.232422	145.647415
1933.687500	90.606544
1932.142578	108.382111
1930.595703	38.815510
1929.050781	92.167999
1927.503906	53.349514
1925.957031	71.118149
1924.410156	88.879517
1922.863281	113.096260
1921.314453	93.689178
1919.767578	101.745026
1918.218750	111.412247
1916.669922	130.761551
1915.121094	133.962830
1913.572266	112.957588
1912.021484	93.574295
1910.472656	104.846291
1908.921875	116.113678
1907.371094	70.943840
1905.820313	103.169930
1904.269531	64.468018
1902.718750	127.298279
1901.166016	88.607246
1899.615234	128.856888
1898.062500	88.570984
1896.509766	83.722694
1894.957031	125.558342
1893.402344	125.532639
1891.849609	112.634430
1890.294922	133.524902
1888.740234	77.203415
1887.185547	127.037933
1885.630859	133.442902
1884.076172	94.837570
1882.519531	107.674843
1880.964844	51.416256
1879.408203	94.779305
1877.851563	122.063583
1876.294922	88.317390
1874.736328	128.435333
1873.179688	109.147659
1871.621094	83.448753
1870.064453	117.125198
1868.505859	115.497063
1866.947266	113.869591
1865.386719	99.415031
1863.828125	86.569534
1862.267578	91.360222
1860.708984	72.111702
1859.148438	137.785202
1857.587891	110.525925
1856.025391	75.270332
1854.464844	75.254890
1852.902344	123.264641
1851.341797	112.035774
1849.779297	129.614807
1848.216797	79.992722
1846.652344	126.362564
1845.089844	119.939835
1843.525391	107.124268
1841.962891	97.511032
1840.398438	102.285652
1838.833984	68.709068
1837.267578	91.060760
1835.703125	113.403275
1834.136719	102.201683
1832.572266	108.566986
1831.005859	67.042305
1829.439453	162.783600
1827.873047	108.500107
1826.304688	103.692032
1824.738281	116.430206
1823.169922	76.541122
1821.601563	141.890839
1820.033203	132.297974
1818.464844	79.681190
1816.896484	105.157562
1815.326172	132.216415
1813.755859	117.855469
1812.185547	90.761902
1810.615234	85.967285
1809.044922	100.274544
1807.474609	109.801918
1805.902344	87.505272
1804.332031	130.435577
1802.759766	119.276299
1801.187500	130.381927
1799.615234	117.637543
1798.041016	74.700363
1796.468750	117.589142
1794.894531	98.500366
1793.320313	125.482704
1791.746094	117.516571
1790.171875	128.606537
1788.597656	144.454147
1787.021484	142.837341
1785.445313	122.180122
1783.871094	92.012833
1782.294922	120.543716
1780.716797	93.560722
1779.140625	104.639603
1777.564453	104.618050
1775.986328	147.385986
1774.408203	158.446915
1772.830078	123.563141
1771.251953	115.618607
1769.673828	129.846191
1768.093750	128.236282
1766.513672	123.461349
1764.935547	132.930969
1763.355469	148.725433
1761.773438	137.621765
1760.193359	153.408737
1758.613281	107.522102
1757.031250	112.242584
1755.449219	124.863892
1753.867188	132.739288
1752.285156	140.611450
1750.701172	135.843719
1749.119141	153.187469
1747.535156	149.998032
1745.951172	115.237869
1744.367188	148.357880
1742.783203	113.612381
1741.199219	82.036461
1739.613281	123.029305
1738.029297	102.503265
1736.443359	115.095291
1734.857422	119.800507
1733.271484	111.895798
1731.683594	111.872704
1730.097656	129.178421
1728.509766	155.927124
1726.921875	114.952827
1725.333984	135.395920
1723.746094	140.090088
1722.158203	171.535583
1720.568359	160.486389
1718.978516	77.080475
1717.390625	117.955956
1715.800781	122.648849
1714.208984	139.916580
1712.619141	147.746521
1711.027344	135.144424
1709.437500	131.974258
1707.845703	136.659363
1706.253906	136.631119
1704.662109	158.584961
1703.068359	164.831467
1701.476563	123.990425
1699.882813	134.949005
1698.289063	156.885010
1696.695313	106.659752
1695.101563	139.569916
1693.505859	150.516205
1691.912109	169.295700
1690.316406	191.201889
1688.720703	148.855911
1687.125000	191.122787
1685.529297	206.745804
1683.933594	238.021667
1682.335938	245.800461
1680.738281	306.795685
1679.140625	320.816833
1677.542969	386.465149
1675.945313	539.687744
1674.347656	520.808167
1672.748047	517.572998
1671.148438	469.002289
1669.548828	354.804932
1667.949219	353.168762
1666.349609	259.353424
1664.748047	224.934677
1663.148438	234.258438
1661.546875	204.543320
1659.945313	206.062027
1658.343750	193.533310
1656.742188	132.636475
1655.138672	171.611633
1653.537109	162.217377
1651.933594	141.910797
1650.330078	115.376068
1648.726563	109.116905
1647.121094	130.913132
1645.517578	141.793167
1643.912109	127.743179
1642.306641	88.778671
1640.701172	112.118233
1639.095703	186.824966
1637.490234	124.524147
1635.884766	76.255219
1634.277344	152.478806
1632.669922	135.335754
1631.062500	135.307678
1629.455078	108.845657
1627.845703	94.831535
1626.238281	76.160347
1624.628906	150.735107
1623.019531	80.789680
1621.410156	113.392738
1619.800781	156.853271
1618.191406	119.556389
1616.580078	114.874489
1614.968750	113.298607
1613.359375	63.620251
1611.746094	156.690506
1610.134766	110.125900
1608.523438	102.349289
1606.910156	120.933128
1605.298828	80.605339
1603.685547	114.683762
1602.070313	103.813728
1600.457031	128.578339
1598.843750	89.831253
1597.228516	111.491486
1595.613281	113.016487
1593.998047	103.705902
1592.382813	91.304123
1590.767578	162.456604
1589.152344	123.750732
1587.535156	103.619690
1585.917969	102.051903
1584.300781	64.928612
1582.683594	97.372665
1581.066406	109.714622
1579.447266	117.416580
1577.828125	137.472397
1576.210938	111.190483
1574.591797	103.447395
1572.970703	87.989174
1571.351563	87.970863
1569.730469	81.780449
1568.111328	132.672729
1566.490234	106.424568
1564.869141	117.196861
1563.248047	127.964668
1561.625000	100.192429
1560.003906	106.335976
1558.380859	123.262413
1556.757813	123.236748
1555.134766	100.109001
1553.511719	130.884506
1551.886719	84.672333
1550.263672	106.203163
1548.638672	127.725021
1547.013672	106.158920
1545.388672	121.518944
1543.761719	136.872559
1542.136719	132.231323
1540.509766	135.278259
1538.882813	79.920494
1537.255859	135.221878
1535.628906	119.830765
1534.001953	116.733841
1532.373047	127.459061
1530.746094	105.937851
1529.117188	84.425606
1527.488281	116.636505
1525.859375	70.581055
1524.228516	101.247345
1522.599609	115.029800
1520.968750	102.738518
1519.337891	116.514900
1517.707031	118.023361
1516.076172	111.868927
1514.443359	127.166893
1512.810547	102.631371
1511.179688	76.574593
1509.546875	113.306740
1507.914063	70.419212
1506.279297	107.137299
1504.646484	102.524292
1503.011719	85.674049
1501.376953	107.070198
1499.742188	103.989334
1498.107422	77.975708
1496.472656	77.959419
1494.835938	122.263741
1493.201172	82.510788
1491.564453	114.574371
1489.927734	94.695023
1488.289063	109.945435
1486.652344	103.815651
1485.013672	122.110535
1483.376953	119.032890
1481.738281	71.709953
1480.099609	85.423782
1478.458984	86.931030
1476.820313	97.586365
1475.179688	109.761703
1473.539063	121.931946
1471.898438	173.716690
1470.257813	111.216362
1468.617188	146.226547
1466.974609	68.529358
1465.333984	94.398468
1463.691406	73.067398
1462.048828	92.837051
1460.406250	111.076828
1458.761719	101.925896
1457.119141	79.090103
1455.474609	109.486458
1453.830078	88.178963
1452.185547	150.480850
1450.539063	117.016159
1448.894531	142.820984
1447.248047	60.762161
1445.603516	116.942673
1443.957031	106.289253
1442.308594	77.423096
1440.662109	91.066910
1439.015625	127.466972
1437.367188	77.374451
1435.718750	98.593826
1434.070313	130.419891
1432.421875	107.649673
1430.771484	89.436615
1429.123047	103.057884
1427.472656	106.066757
1425.822266	109.074371
1424.171875	146.916611
1422.521484	110.542923
1420.869141	110.519745
1419.218750	108.982918
1417.566406	118.040070
1415.914063	114.989281
1414.261719	134.630264
1412.607422	80.156258
1410.955078	95.260094
1409.300781	72.563889
1407.646484	102.777275
1405.992188	107.289055
1404.337891	119.352905
1402.683594	151.047928
1401.027344	108.731682
1399.371094	61.903652
1397.714844	140.386124
1396.058594	111.681641
1394.402344	111.658195
1392.744141	52.800220
1391.087891	92.003914
1389.429688	126.667313
1387.771484	75.381371
1386.113281	110.033691
1384.453125	99.461617
1382.794922	138.614334
1381.134766	114.483437
1379.474609	99.398941
1377.814453	127.986885
1376.154297	143.014114
1374.492188	66.224190
1372.832031	108.344086
1371.169922	100.798996
1369.507813	96.265366
1367.845703	106.771942
1366.181641	145.840851
1364.519531	69.147102
1362.855469	123.236298
1361.191406	115.697556
1359.527344	120.179970
1357.863281	90.116020
1356.199219	112.621330
1354.533203	111.096336
1352.867188	78.051270
1351.201172	76.534180
1349.535156	90.021263
1347.869141	90.002319
1346.201172	109.479774
1344.535156	125.950211
1342.867188	128.921875
1341.199219	143.882507
1339.531250	85.412247
1337.861328	91.386848
1336.193359	104.848068
1334.523438	133.278763
1332.853516	109.295509
1331.183594	67.359756
1329.511719	83.807816
1327.841797	137.655258
1326.169922	77.788757
1324.500000	124.136665
1322.828125	133.082352
1321.154297	101.659470
1319.482422	133.026260
1317.808594	103.110985
1316.136719	118.029724
1314.462891	83.649002
1312.789063	129.927307
1311.113281	110.489578
1309.439453	117.930222
1307.763672	131.337616
1306.087891	114.896172
1304.412109	96.969818
1302.736328	117.830772
1301.060547	134.209274
1299.382813	90.944870
1297.707031	104.340950
1296.029297	114.750824
1294.351563	116.216568
1292.671875	120.660973
1290.994141	98.295593
1289.314453	128.055115
1287.636719	102.720200
1285.957031	125.024284
1284.275391	101.188766
1282.595703	96.704132
1280.914063	113.045578
1279.234375	78.817764
1277.552734	115.971458
1275.871094	129.325470
1274.189453	133.756699
1272.505859	139.671936
1270.822266	80.220116
1269.140625	99.511337
1267.457031	115.824547
1265.771484	86.107742
1264.087891	100.932571
1262.404297	100.911240
1260.718750	102.373589
1259.033203	97.901863
1257.347656	115.677742
1255.662109	99.343208
1253.974609	106.734306
1252.287109	118.568596
1250.601563	88.907639
1248.914063	112.592529
1247.224609	121.455719
1245.537109	105.140633
1243.849609	96.235146
1242.160156	103.615929
1240.470703	146.511520
1238.781250	110.970085
1237.091797	94.674438
1235.400391	93.175423
1233.708984	107.942322
1232.019531	103.484428
1230.328125	121.198952
1228.634766	121.173294
1226.943359	138.876572
1225.250000	69.423576
1223.558594	101.898140
1221.865234	76.776535
1220.171875	81.188759
1218.476563	126.922798
1216.783203	73.776695
1215.087891	144.571686
1213.392578	92.919250
1211.697266	119.442299
1210.001953	82.559891
1208.306641	110.547852
1206.609375	89.893196
1204.912109	98.714226
1203.214844	126.680946
1201.517578	113.399597
1199.820313	100.123863
1198.121094	82.437469
1196.423828	122.158195
1194.724609	116.246391
1193.025391	98.567802
1191.326172	116.197090
1189.625000	105.878685
1187.923828	110.266899
1186.224609	108.773590
1184.523438	149.899353
1182.822266	88.157379
1181.119141	111.642319
1179.417969	88.119965
1177.714844	117.468353
1176.011719	117.443420
1174.308594	118.886215
1172.605469	126.198074
1170.900391	143.776581
1169.197266	99.742157
1167.492188	120.251762
1165.787109	120.226227
1164.080078	107.007935
1162.375000	117.244057
1160.667969	145.058701
1158.962891	102.544968
1157.255859	133.280136
1155.548828	98.108482
1153.839844	136.151489
1152.132813	90.748375
1150.423828	131.703506
1148.714844	125.823273
1147.005859	108.243523
1145.296875	103.833191
1143.585938	99.424736
1141.876953	93.556320
1140.166016	108.151497
1138.455078	138.813614
1136.744141	86.192223
1135.033203	144.596863
1133.320313	109.519783
1131.607422	90.517090
1129.894531	132.827469
1128.181641	154.689178
1126.468750	115.262688
1124.753906	105.027184
1123.041016	110.838432
1121.326172	118.105293
1119.611328	78.720100
1117.896484	67.043587
1116.179688	103.458290
1114.464844	100.522568
1112.748047	112.153473
1111.031250	109.217133
1109.314453	97.546524
1107.595703	125.182304
1105.878906	104.781471
1104.160156	107.669121
1102.441406	117.828934
1100.722656	123.621300
1099.003906	84.335388
1097.283203	162.819839
1095.562500	114.821655
1093.843750	127.875343
1092.123047	136.565002
1090.400391	111.843231
1088.679688	121.984787
1086.957031	91.469086
1085.236328	104.513802
1083.513672	113.199142
1081.789063	129.135574
1080.066406	113.150864
1078.341797	127.630157
1076.619141	85.551964
1074.894531	120.327095
1073.169922	114.503761
1071.443359	104.335594
1069.718750	143.430832
1067.992188	130.363831
1066.265625	152.058685
1064.539063	85.424255
1062.812500	173.707169
1061.085938	109.991051
1059.357422	127.330872
1057.628906	101.264290
1055.900391	118.598557
1054.171875	92.544960
1052.443359	119.993614
1050.712891	105.514008
1048.982422	114.162003
1047.251953	111.248055
1045.521484	111.224289
1043.791016	121.309662
1042.058594	141.497696
1040.328125	145.798096
1038.595703	115.458954
1036.863281	132.749420
1035.128906	90.885063
1033.396484	111.057999
1031.662109	87.962204
1029.927734	112.452209
1028.193359	109.545387
1026.458984	105.198730
1024.724609	148.399338
1022.988281	155.569916
1021.251953	116.652473
1019.515625	126.706444
1017.779297	130.997955
1016.042969	152.558365
1014.304688	117.991600
1012.568359	93.509911
1010.830078	143.830612
1009.089844	168.245804
1007.351563	162.459030
1005.613281	153.799957
1003.873047	116.403076
1002.132813	133.619354
1000.392578	110.607391
998.652344	168.029785
996.910156	124.918472
995.169922	140.682617
993.427734	149.263870
991.685547	144.927124
989.941406	136.288391
988.199219	139.127808
986.455078	113.285995
984.712891	154.838806
982.968750	143.338531
981.222656	111.780098
979.478516	160.470352
977.734375	98.840004
975.988281	110.276070
974.242188	138.889420
972.496094	164.627411
970.748047	148.848511
969.001953	121.628944
967.253906	133.047836
965.505859	130.158661
963.757813	158.730911
962.009766	161.556259
960.259766	117.210358
958.511719	120.043388
956.761719	125.732750
955.011719	99.993225
953.259766	114.253448
951.509766	147.069733
949.757813	142.755508
948.007813	149.861099
946.255859	145.548096
944.501953	149.796753
942.750000	186.849152
940.996094	185.382996
939.244141	135.443100
937.490234	161.071396
935.734375	178.138046
933.980469	136.780624
932.224609	160.967606
930.470703	186.568375
928.714844	148.083511
926.958984	192.182495
925.201172	196.410995
923.445313	187.830994
921.687500	187.790619
919.929688	147.924438
918.171875	211.884644
916.414063	184.826050
914.654297	171.993408
912.894531	181.904312
911.136719	208.860794
909.375000	210.236389
907.615234	180.366745
905.855469	168.968704
904.093750	190.226349
902.332031	227.087067
900.570313	173.116623
898.808594	183.010147
897.044922	201.409683
895.283203	191.439819
893.519531	161.625488
891.755859	187.105026
889.992188	179.978958
888.226563	184.190750
886.462891	171.402176
884.697266	144.456665
882.931641	134.513992
881.166016	154.303864
879.398438	158.516602
877.632813	166.972595
875.865234	142.886429
874.097656	165.486237
872.330078	161.208252
870.562500	145.621689
868.792969	145.590302
867.023438	146.972107
865.253906	152.591980
863.484375	179.398193
861.714844	160.999878
859.943359	172.260956
858.173828	160.930450
856.402344	177.832138
854.628906	136.873001
852.857422	214.435135
851.085938	145.276672
849.312500	188.959946
847.539063	272.100006
845.765625	273.450836
843.992188	342.444397
842.216797	511.442352
840.441406	674.732849
838.667969	774.578186
836.892578	725.130310
835.115234	519.447205
833.339844	365.927155
831.562500	216.694672
829.785156	196.952621
828.007813	156.121567
826.230469	171.556015
824.451172	175.736633
822.673828	212.244003
820.894531	155.986710
819.115234	108.183624
817.335938	130.635101
815.554688	143.246246
813.775391	123.558296
811.994141	181.086075
810.212891	113.680634
808.431641	148.735092
806.648438	137.480072
804.867188	171.111664
803.083984	129.007126
801.300781	148.606506
799.515625	156.984238
797.732422	133.127472
795.947266	110.682060
794.164063	151.279449
792.378906	121.837639
790.591797	135.812576
788.806641	149.781448
787.019531	149.749039
785.234375	149.716629
783.447266	141.290726
781.658203	109.091988
779.871094	134.237991
778.082031	134.208939
776.294922	111.816566
774.505859	145.330063
772.716797	134.121780
770.925781	141.076721
769.136719	136.856689
767.345703	118.676514
765.554688	164.715240
763.763672	97.691261
761.970703	104.646530
760.179688	145.078415
758.386719	177.124664
756.593750	128.282974
754.800781	146.378189
753.005859	144.952682
751.212891	186.725479
749.417969	133.744476
747.623047	111.429558
745.828125	144.827026
744.033203	119.734833
742.236328	121.100830
740.439453	134.991180
738.642578	168.354538
736.845703	150.234268
735.048828	122.386543
733.250000	136.264542
731.451172	151.526657
729.652344	94.509872
727.853516	118.111702
726.054688	168.098999
724.253906	105.559921
722.455078	133.309906
720.654297	95.795692
718.853516	109.655312
717.050781	92.978615
715.250000	129.031845
713.447266	144.262329
711.644531	70.728661
709.841797	95.670937
708.037109	134.464706
706.234375	103.944969
704.429688	142.720078
702.625000	113.597122
700.820313	170.358643
699.013672	94.161552
697.208984	94.141083
695.402344	130.107910
693.595703	114.857544
691.789063	163.255951
689.982422	110.657936
688.173828	134.143570
686.365234	147.940628
684.556641	158.967026
682.748047	140.966171
680.939453	127.118301
679.128906	100.843666
677.318359	110.489563
675.507813	122.892899
673.697266	144.954453
671.886719	110.417458
670.074219	124.192604
668.261719	117.267479
666.449219	118.621269
664.636719	124.111519
662.824219	128.220642
661.009766	118.543816
659.195313	150.214676
657.380859	148.804138
655.566406	114.333832
653.751953	107.422852
651.935547	129.430099
650.119141	104.622818
648.302734	116.986870
646.486328	125.217476
644.669922	149.953094
642.851563	85.275826
641.033203	119.635162
639.214844	122.358719
637.396484	103.088806
635.578125	167.654572
633.757813	104.417778
631.937500	131.867386
630.117188	126.345352
628.296875	86.500229
626.474609	131.781128
624.654297	116.655754
622.832031	120.746666
621.009766	128.951263
619.185547	113.836372
617.363281	119.296432
615.539063	119.270393
613.714844	111.020615
611.890625	131.551270
610.066406	121.932373
608.242188	131.493851
606.416016	113.662567
604.589844	127.329048
602.763672	83.498665
600.937500	140.958755
599.109375	109.458618
597.281250	102.595047
595.453125	139.498779
593.625000	112.121582
591.796875	79.288185
589.966797	105.238899
588.138672	118.880302
586.308594	155.740158
584.478516	146.145218
582.646484	116.071289
580.816406	135.159363
578.984375	128.305069
577.152344	141.923523
575.320313	120.062874
573.486328	117.308510
571.654297	152.740463
569.820313	94.078461
567.986328	118.594719
566.152344	126.745934
564.316406	130.805893
562.482422	123.965950
560.646484	156.625992
558.810547	85.785027
556.974609	156.557449
555.136719	130.662827
553.300781	130.634232
551.462891	165.977997
549.625000	145.539001
547.785156	140.067612
545.947266	129.160278
544.107422	145.443405
542.267578	116.872841
540.427734	119.564621
538.587891	112.746475
536.748047	131.735092
534.906250	154.788757
533.064453	134.392365
531.222656	115.362106
529.378906	120.764442
527.537109	168.219193
525.693359	128.849365
523.849609	136.957184
522.005859	130.148590
520.162109	111.144218
518.316406	119.250572
516.470703	108.385834
514.625000	127.325432
512.779297	143.548248
510.933594	135.393173
509.085938	89.339890
507.238281	139.393799
505.390625	142.069290
503.542969	117.688728
501.695313	128.482483
499.845703	141.975784
497.996094	139.240921
496.146484	124.343231
494.296875	133.774750
492.447266	117.533829
490.595703	143.170685
488.744141	141.788879
486.892578	126.906937
485.041016	157.923950
483.187500	138.996521
481.333984	128.172516
479.480469	169.959900
477.626953	94.401421
475.773438	111.908516
473.917969	148.279907
472.064453	134.770294
470.208984	129.351044
468.351563	130.669724
466.496094	133.334625
464.638672	126.572731
462.783203	130.583572
460.925781	123.825226
459.066406	135.908676
457.208984	110.317429
455.349609	145.264160
453.490234	182.885010
451.630859	133.100250
449.771484	107.532097
447.912109	122.290848
446.050781	137.043091
444.189453	127.610092
442.328125	134.296844
440.466797	130.239273
438.603516	112.759697
436.740234	161.049820
434.876953	132.836853
433.013672	108.660767
431.150391	97.907280
429.285156	134.090027
427.419922	105.907791
425.554688	142.072830
423.689453	143.381546
421.824219	119.235016
419.957031	143.318375
418.089844	100.434677
416.222656	125.850388
414.355469	143.223663
412.488281	133.824387
410.619141	152.526169
408.750000	128.414780
406.880859	117.687599
405.011719	179.166611
403.140625	168.432953
401.269531	122.955666
399.398438	145.643616
397.527344	124.237328
395.656250	118.867561
393.783203	134.864899
391.910156	141.510147
390.037109	141.478928
388.164063	178.811249
386.291016	117.402374
384.416016	110.707344
382.541016	144.021133
380.666016	122.657593
378.791016	165.284607
376.914063	105.279045
375.039063	163.879288
373.162109	135.869888
371.285156	165.138672
369.406250	151.787506
367.529297	146.429291
365.650391	141.073410
363.771484	150.356354
361.892578	159.635193
360.011719	154.279922
358.132813	128.981430
356.251953	154.211746
354.371094	126.266190
352.490234	163.445358
350.607422	136.838623
348.724609	135.480133
346.841797	144.745773
344.958984	155.334961
343.076172	181.847733
341.193359	131.379150
339.308594	118.082405
337.423828	119.382767
335.539063	137.922897
333.652344	140.544159
331.767578	161.722580
329.880859	148.433792
327.994141	177.551117
326.107422	154.991669
324.218750	150.984100
322.330078	137.709396
320.443359	133.707397
318.552734	137.648422
316.664063	152.173691
314.775391	148.171127
312.884766	124.330368
310.994141	108.434387
309.103516	165.259705
307.210938	155.970596
305.320313	182.365891
303.427734	142.689514
301.535156	146.620605
299.642578	143.946899
297.748047	108.266327
295.853516	130.682816
293.960938	134.613052
292.064453	146.458206
290.169922	127.957619
288.275391	125.291534
286.378906	123.945183
284.482422	126.554245
282.585938	131.798096
280.687500	151.534195
278.791016	140.961411
276.892578	101.417015
274.994141	150.116562
273.095703	127.702415
271.195313	143.468811
269.294922	144.752899
267.396484	102.620186
265.494141	155.211472
263.593750	113.095108
261.691406	151.198257
259.791016	123.560699
257.888672	159.016220
255.986328	162.922592
254.082031	136.614410
252.177734	120.824364
250.275391	128.675629
248.371094	133.897934
246.464844	120.743858
244.560547	122.029175
242.654297	122.002052
240.748047	146.894562
238.841797	162.597107
236.935547	125.853653
235.027344	145.485947
233.119141	125.797707
231.210938	108.738419
229.302734	142.769302
227.392578	145.356598
225.484375	125.685852
223.574219	159.690247
221.664063	111.234848
219.751953	138.685547
217.841797	137.346619
215.929688	159.548187
214.017578	150.360321
212.105469	188.235382
210.193359	145.065811
208.279297	111.061707
206.365234	126.712791
204.451172	138.438828
202.537109	129.267853
200.621094	117.490059
198.705078	133.125748
196.789063	148.754471
194.873047	140.893906
192.957031	142.166794
191.039063	117.359283
189.123047	175.999710
187.203125	161.622971
185.285156	143.343262
183.367188	140.705658
181.447266	131.556519
179.527344	162.781189
177.607422	143.215515
175.687500	139.278580
173.765625	134.042023
171.843750	152.227371
169.921875	127.478256
168.000000	131.351349
166.078125	124.820961
164.154297	152.091614
162.230469	136.462036
160.306641	129.934845
158.382813	123.410561
156.457031	154.553467
154.531250	141.534195
152.605469	153.186310
150.679688	149.258423
148.753906	137.546616
146.826172	153.083755
144.898438	131.000061
142.970703	119.300140
141.042969	119.273506
139.113281	120.543030
137.183594	155.504654
135.253906	133.445023
133.324219	130.824615
131.394531	176.120529
129.462891	135.945023
127.531250	128.148102
125.599609	176.002502
123.667969	172.081619
121.734375	160.401138
119.802734	124.153770
117.869141	112.489204
115.935547	140.903244
114.000000	144.748947
112.066406	134.379669
110.130859	140.808746
108.195313	171.774078
106.257813	121.377075
104.322266	156.205750
102.384766	130.357452
100.447266	122.586014
