#Wave		#Intensity
3501.405273	1664.307983
3500.167969	1668.347534
3498.929688	1653.897583
3497.691406	1625.319702
3496.453125	1647.218750
3495.213867	1636.817139
3493.975586	1652.651978
3492.736328	1618.042969
3491.497070	1528.984497
3490.256836	1663.818726
3489.017578	1726.012695
3487.777344	1689.399658
3486.537109	1644.737915
3485.296875	1590.016846
3484.055664	1630.014160
3482.814453	1706.256836
3481.573242	1633.427979
3480.332031	1614.996704
3479.089844	1606.638916
3477.848633	1618.413818
3476.606445	1664.397949
3475.363281	1684.206055
3474.121094	1649.687622
3472.877930	1641.330811
3471.634766	1651.076660
3470.391602	1606.530396
3469.147461	1738.906982
3467.904297	1644.112915
3466.660156	1631.745483
3465.416016	1675.639282
3464.170898	1629.121216
3462.926758	1727.225464
3461.681641	1626.498535
3460.436523	1618.161011
3459.190430	1581.724976
3457.945313	1541.288696
3456.699219	1643.329712
3455.453125	1600.890869
3454.206055	1626.663452
3452.959961	1564.189941
3451.712891	1636.074341
3450.465820	1695.903931
3449.218750	1615.414307
3447.970703	1577.036011
3446.722656	1676.912231
3445.474609	1572.434326
3444.226563	1608.186401
3442.978516	1613.889648
3441.729492	1597.569092
3440.480469	1639.300781
3439.231445	1542.932983
3437.981445	1540.640747
3436.731445	1628.369629
3435.481445	1616.061523
3434.231445	1653.750488
3432.981445	1547.473999
3431.730469	1597.155151
3430.479492	1614.840332
3429.228516	1610.538818
3427.977539	1602.243164
3426.725586	1591.953125
3425.473633	1617.613892
3424.221680	1601.334717
3422.969727	1613.009766
3421.716797	1572.786377
3420.463867	1560.515747
3419.210938	1570.196411
3417.958008	1673.628540
3416.704102	1597.524414
3415.450195	1625.138794
3414.196289	1571.002563
3412.942383	1646.450073
3411.687500	1572.401245
3410.433594	1592.029053
3409.178711	1567.822021
3407.922852	1619.311523
3406.667969	1628.962036
3405.412109	1558.968140
3404.156250	1648.252075
3402.900391	1620.076416
3401.643555	1564.052856
3400.386719	1553.809204
3399.129883	1601.254395
3397.873047	1585.041138
3396.616211	1580.764282
3395.358398	1540.704956
3394.100586	1530.474976
3392.842773	1536.146973
3391.583984	1629.239258
3390.326172	1607.079224
3389.067383	1626.636108
3387.808594	1614.413574
3386.548828	1467.190186
3385.289063	1528.447144
3384.030273	1601.588501
3382.769531	1456.435303
3381.509766	1527.578613
3380.249023	1578.859985
3378.988281	1528.982788
3377.727539	1588.175293
3376.466797	1548.227051
3375.205078	1456.762085
3373.943359	1490.173340
3372.681641	1487.909668
3371.419922	1554.976929
3370.157227	1495.267578
3368.894531	1546.466919
3367.631836	1591.707642
3366.369141	1526.086914
3365.105469	1496.112793
3363.842773	1539.358398
3362.578125	1471.806519
3361.314453	1481.416626
3360.050781	1542.437622
3358.786133	1540.167969
3357.521484	1508.248047
3356.255859	1531.678223
3354.991211	1566.955322
3353.725586	1519.243286
3352.459961	1518.955078
3351.194336	1494.968506
3349.927734	1465.067505
3348.661133	1522.038574
3347.394531	1444.774048
3346.127930	1521.460815
3344.860352	1479.739258
3343.593750	1445.923950
3342.326172	1591.594971
3341.057617	1488.755981
3339.790039	1423.414185
3338.521484	1488.190552
3337.252930	1501.703125
3335.984375	1471.862427
3334.714844	1550.382568
3333.446289	1431.911011
3332.176758	1461.177734
3330.906250	1447.118042
3329.636719	1509.834839
3328.366211	1480.026245
3327.095703	1475.809448
3325.825195	1449.953247
3324.554688	1496.885620
3323.283203	1482.834839
3322.011719	1525.810425
3320.740234	1484.237061
3319.467773	1546.850952
3318.195313	1473.847168
3316.922852	1455.884155
3315.650391	1418.284058
3314.377930	1502.466797
3313.104492	1476.653809
3311.831055	1437.107788
3310.557617	1370.096191
3309.283203	1509.174194
3308.009766	1455.909424
3306.735352	1422.282349
3305.460938	1522.042969
3304.185547	1427.624390
3302.911133	1454.801758
3301.635742	1550.578613
3300.359375	1413.090332
3299.083984	1448.092896
3297.807617	1443.899048
3296.531250	1521.975586
3295.254883	1464.891968
3293.978516	1413.704102
3292.701172	1470.207397
3291.423828	1456.226440
3290.146484	1420.724609
3288.869141	1457.628540
3287.590820	1492.562134
3286.312500	1441.427002
3285.034180	1488.082886
3283.754883	1423.282593
3282.476563	1442.558350
3281.197266	1483.324097
3279.917969	1453.732422
3278.637695	1469.084106
3277.357422	1394.582764
3276.078125	1484.146973
3274.796875	1425.290649
3273.516602	1440.635620
3272.235352	1471.588501
3270.954102	1416.670532
3269.672852	1478.831421
3268.391602	1384.921143
3267.109375	1417.810913
3265.827148	1448.738281
3264.544922	1432.866211
3263.262695	1461.829590
3261.979492	1360.216675
3260.696289	1461.272217
3259.413086	1418.137817
3258.128906	1404.234009
3256.845703	1402.018921
3255.561523	1366.707764
3254.277344	1450.146729
3252.992188	1436.247192
3251.707031	1354.251221
3250.422852	1418.190796
3249.136719	1412.085083
3247.851563	1448.764038
3246.565430	1394.047729
3245.279297	1389.893921
3243.993164	1387.685059
3242.707031	1379.647583
3241.419922	1433.782471
3240.132813	1435.451294
3238.845703	1429.351074
3237.557617	1407.719727
3236.270508	1388.037842
3234.982422	1380.009033
3233.694336	1447.665405
3232.405273	1391.123169
3231.116211	1414.135498
3229.827148	1425.502197
3228.538086	1415.534424
3227.249023	1428.835083
3225.958984	1374.288452
3224.668945	1393.405640
3223.378906	1354.387329
3222.087891	1390.936035
3220.797852	1382.922729
3219.506836	1429.134399
3218.215820	1395.947144
3216.923828	1374.387085
3215.631836	1401.219727
3214.339844	1340.966431
3213.047852	1420.030640
3211.755859	1288.228271
3210.462891	1448.496338
3209.169922	1463.687622
3207.876953	1357.083618
3206.583008	1358.756836
3205.289063	1344.969971
3203.995117	1379.489868
3202.701172	1323.207031
3201.407227	1417.588623
3200.112305	1403.800781
3198.817383	1316.656128
3197.521484	1391.682495
3196.226563	1348.959717
3194.930664	1352.560547
3193.634766	1313.719604
3192.338867	1342.399170
3191.041992	1380.709595
3189.745117	1345.741455
3188.448242	1291.510254
3187.151367	1275.844971
3185.854492	1360.383911
3184.556641	1317.739990
3183.258789	1286.669312
3181.959961	1353.825317
3180.662109	1278.474976
3179.363281	1366.782227
3178.064453	1368.445190
3176.764648	1316.226807
3175.465820	1290.963379
3174.166016	1371.506104
3172.866211	1300.084961
3171.565430	1390.209106
3170.265625	1334.191162
3168.964844	1355.078613
3167.664063	1299.088867
3166.362305	1331.503052
3165.061523	1354.299805
3163.759766	1229.199585
3162.458008	1346.099731
3161.155273	1247.927368
3159.853516	1264.963867
3158.550781	1303.104370
3157.248047	1308.610840
3155.944336	1306.441528
3154.640625	1329.207642
3153.337891	1281.010742
3152.033203	1248.170776
3150.729492	1366.781982
3149.424805	1345.437500
3148.120117	1364.341553
3146.815430	1254.876831
3145.509766	1388.719360
3144.205078	1315.678833
3142.899414	1250.325195
3141.592773	1303.687744
3140.287109	1293.867554
3138.980469	1293.619263
3137.673828	1253.192261
3136.367188	1207.042114
3135.059570	1348.338135
3133.752930	1311.748047
3132.445313	1280.907471
3131.136719	1326.536011
3129.829102	1328.192383
3128.520508	1343.222900
3127.211914	1270.372314
3125.902344	1245.298706
3124.593750	1254.607666
3123.284180	1254.366699
3121.974609	1324.753784
3120.664063	1297.780273
3119.354492	1225.021973
3118.043945	1255.310913
3116.733398	1291.310303
3115.421875	1279.619995
3114.111328	1273.654053
3112.799805	1200.969849
3111.488281	1246.481567
3110.175781	1244.336426
3108.864258	1270.770020
3107.551758	1333.385376
3106.238281	1226.478760
3104.925781	1195.777344
3103.612305	1246.948364
3102.298828	1339.973755
3100.985352	1216.020752
3099.671875	1255.742310
3098.357422	1247.891724
3097.042969	1342.747192
3095.727539	1285.442627
3094.413086	1258.578857
3093.097656	1303.956299
3091.782227	1191.579102
3090.466797	1273.053345
3089.150391	1238.613525
3087.833984	1249.771240
3086.517578	1281.813477
3085.201172	1310.046021
3083.883789	1290.811401
3082.566406	1224.136963
3081.249023	1244.774048
3079.931641	1217.974243
3078.613281	1200.668701
3077.294922	1266.812378
3075.976563	1175.557617
3074.658203	1228.410645
3073.338867	1254.708740
3072.019531	1205.197998
3070.700195	1195.492920
3069.379883	1259.666626
3068.060547	1234.803711
3066.740234	1262.968506
3065.418945	1238.114258
3064.098633	1290.873535
3062.777344	1218.713135
3061.456055	1114.415771
3060.134766	1152.034668
3058.812500	1272.856934
3057.491211	1187.518799
3056.167969	1296.944092
3054.845703	1166.268555
3053.523438	1205.730835
3052.200195	1288.636230
3050.876953	1229.824707
3049.552734	1157.814453
3048.229492	1246.346069
3046.905273	1242.329712
3045.580078	1223.213379
3044.255859	1141.823120
3042.930664	1230.289307
3041.605469	1222.505737
3040.280273	1218.497437
3038.955078	1216.376587
3037.628906	1135.065796
3036.302734	1178.204712
3034.976563	1251.483154
3033.649414	1268.201294
3032.322266	1217.087524
3030.995117	1230.038330
3029.667969	1152.585205
3028.339844	1242.744141
3027.012695	1195.439697
3025.684570	1099.215820
3024.355469	1200.623779
3023.027344	1226.732788
3021.698242	1241.545044
3020.369141	1203.689941
3019.039063	1188.414307
3017.708984	1148.703979
3016.378906	1201.113037
3015.048828	1200.880981
3013.718750	1178.101685
3012.387695	1222.960205
3011.056641	1222.723877
3009.725586	1199.953247
3008.393555	1137.764038
3007.062500	1218.260986
3005.730469	1187.997192
3004.397461	1208.408081
3003.065430	1159.397339
3001.732422	1189.184204
3000.399414	1235.837402
2999.065430	1203.724121
2997.732422	1197.867554
2996.398438	1165.774048
2995.064453	1195.530518
2993.729492	1167.196777
2992.395508	1138.873779
2991.060547	1204.201050
2989.724609	1102.857300
2988.389648	1199.991089
2987.053711	1098.687256
2985.717773	1096.603394
2984.381836	1171.230225
2983.044922	1232.733887
2981.708984	1193.220093
2980.372070	1159.331177
2979.034180	1174.062988
2977.697266	1160.751587
2976.359375	1225.935059
2975.021484	1287.356323
2973.682617	1199.307373
2972.344727	1180.398071
2971.005859	1140.955078
2969.666016	1174.340088
2968.327148	1159.179565
2966.987305	1060.042725
2965.647461	1128.876099
2964.307617	1093.212036
2962.967773	1132.169312
2961.626953	1158.057495
2960.286133	1191.393555
2958.944336	1194.890991
2957.603516	1194.659546
2956.261719	1078.898315
2954.919922	1181.155518
2953.577148	1113.870850
2952.235352	1147.176392
2950.892578	1146.953979
2949.549805	1135.562256
2948.206055	1191.178589
2946.863281	1207.695435
2945.519531	1157.227905
2944.174805	1142.122559
2942.831055	1223.731079
2941.486328	1188.165039
2940.141602	1223.256592
2938.796875	1150.530396
2937.451172	1213.490479
2936.105469	1161.231934
2934.759766	1201.874146
2933.414063	1203.498291
2932.067383	1175.411377
2930.720703	1143.622314
2929.374023	1122.982666
2928.027344	1184.006470
2926.679688	1198.620239
2925.332031	1183.546997
2923.984375	1216.702393
2922.635742	1177.524414
2921.287109	1214.376099
2919.938477	1138.140747
2918.589844	1113.827026
2917.240234	1109.904907
2915.890625	1137.477905
2914.541016	1090.951782
2913.191406	1083.332520
2911.840820	1088.676636
2910.490234	1118.083374
2909.139648	1177.090820
2907.789063	1106.546509
2906.437500	1121.131958
2905.085938	1120.914185
2903.734375	1083.709717
2902.381836	1120.478638
2901.029297	1194.205566
2899.676758	1114.498535
2898.324219	1101.346680
2896.970703	1097.437500
2895.617188	1082.446777
2894.263672	1133.947266
2892.910156	1100.490601
2891.555664	1085.507813
2890.201172	1138.823364
2888.846680	1114.611938
2887.491211	1103.325073
2886.135742	1152.916504
2884.780273	1029.123657
2883.424805	1159.843872
2882.068359	1093.249023
2880.712891	1135.430664
2879.355469	1083.609375
2877.999023	1146.044067
2876.641602	1156.874023
2875.284180	1081.135132
2873.926758	1172.996826
2872.569336	1123.059326
2871.210938	1111.796387
2869.852539	1133.664429
2868.494141	1096.643677
2867.134766	1120.345581
2865.775391	1136.681030
2864.416016	1066.580444
2863.056641	1101.305664
2861.696289	979.768982
2860.335938	1157.850342
2858.975586	1130.062378
2857.614258	1124.330933
2856.253906	1124.111938
2854.892578	984.324524
2853.530273	1088.788696
2852.168945	1139.976563
2850.806641	1104.882690
2849.444336	1121.182373
2848.082031	1014.554932
2846.718750	1084.059937
2845.355469	1116.859253
2843.992188	1054.300293
2842.627930	1096.258667
2841.264648	1081.382202
2839.900391	1095.831299
2838.535156	1091.953369
2837.170898	1058.768433
2835.805664	1115.336182
2834.440430	1087.652710
2833.075195	1184.468140
2831.708984	1112.853394
2830.342773	1061.396484
2828.976563	1099.611938
2827.609375	1081.104614
2826.243164	1117.472168
2824.875977	1020.340149
2823.507813	1096.925903
2822.140625	1056.499146
2820.772461	1034.363037
2819.404297	1085.321045
2818.035156	1032.132568
2816.666992	1041.063232
2815.297852	1082.859619
2813.928711	1113.685425
2812.558594	1095.214478
2811.189453	1007.400574
2809.819336	1065.592529
2808.448242	1145.653076
2807.078125	1015.930237
2805.707031	1032.144043
2804.335938	1088.462280
2802.963867	1117.415527
2801.592773	1057.054443
2800.220703	1069.603027
2798.848633	1043.888916
2797.475586	987.220398
2796.102539	968.816650
2794.729492	1028.711426
2793.356445	1043.073364
2791.982422	1079.269897
2790.609375	1082.698242
2789.234375	1047.919800
2787.860352	1016.792847
2786.485352	1078.426270
2785.110352	1007.304138
2783.735352	1032.557617
2782.360352	1014.180420
2780.984375	1115.743774
2779.608398	1030.135132
2778.231445	1046.281860
2776.855469	1067.870483
2775.478516	1065.845947
2774.101563	1098.314575
2772.723633	1058.168823
2771.346680	1061.591187
2769.968750	1035.982788
2768.589844	1003.128540
2767.211914	1073.663452
2765.833008	1035.374756
2764.454102	1051.488403
2763.075195	1078.470947
2761.695313	965.903320
2760.315430	978.397217
2758.935547	1019.869995
2757.554688	1097.549194
2756.174805	1052.064819
2754.793945	1004.787659
2753.412109	1042.602417
2752.031250	984.487244
2750.649414	1080.190796
2749.267578	1070.934204
2747.884766	1020.082031
2746.502930	1041.581787
2745.120117	1082.960571
2743.736328	1073.710449
2742.353516	1073.500000
2740.969727	1026.310669
2739.585938	1053.207520
2738.202148	1056.613525
2736.817383	1040.154053
2735.432617	1002.035278
2734.047852	1000.033752
2732.662109	1041.347290
2731.277344	1033.925415
2729.891602	1042.743042
2728.504883	1020.894165
2727.119141	1071.187622
2725.732422	1020.493835
2724.345703	1067.162354
2722.958008	1032.709595
2721.571289	989.260620
2720.183594	990.868164
2718.794922	1017.692200
2717.407227	1024.696045
2716.018555	983.083008
2714.629883	1024.293945
2713.241211	1052.889893
2711.851563	1011.295776
2710.461914	1032.686523
2709.072266	1000.106323
2707.681641	1123.999634
2706.291016	1062.645386
2704.900391	1013.899048
2703.509766	911.251587
2702.119141	991.937073
2700.727539	1004.318787
2699.334961	1000.528992
2697.943359	1025.475464
2696.550781	1019.887390
2695.158203	1075.338989
2693.765625	1030.255981
2692.372070	1019.286499
2690.979492	972.437927
2689.584961	1038.617920
2688.191406	993.577393
2686.796875	1034.623657
2685.402344	1041.591309
2684.007813	1039.594238
2682.613281	1055.518433
2681.217773	1032.018799
2679.822266	969.118835
2678.425781	1031.613159
2677.030273	1022.457092
2675.633789	1034.788086
2674.237305	1061.433716
2672.839844	1023.643677
2671.442383	960.819153
2670.044922	1042.918823
2668.647461	965.806824
2667.249023	1047.873047
2665.850586	988.668640
2664.452148	988.474182
2663.053711	993.641052
2661.654297	1064.916504
2660.254883	945.016724
2658.855469	1021.631714
2657.455078	1050.002197
2656.054688	999.805237
2654.654297	1021.028625
2653.252930	990.488403
2651.852539	999.214966
2650.451172	995.450317
2649.048828	997.037964
2647.647461	948.693665
2646.245117	1007.342773
2644.842773	935.842163
2643.439453	969.519714
2642.037109	965.765076
2640.633789	1072.465088
2639.229492	970.728088
2637.826172	999.029663
2636.421875	1062.929077
2635.017578	996.855957
2633.613281	1000.219055
2632.208008	939.522400
2630.802734	1019.394409
2629.397461	988.955627
2627.991211	963.863831
2626.584961	985.009827
2625.178711	1038.145020
2623.772461	940.189087
2622.365234	915.126526
2620.958008	1033.977905
2619.550781	984.039185
2618.142578	948.327271
2616.735352	937.486938
2615.326172	979.906677
2613.917969	999.236694
2612.508789	999.039612
2611.099609	954.488953
2609.690430	998.645447
2608.281250	971.846741
2606.871094	969.881897
2605.460938	950.190308
2604.049805	978.361084
2602.639648	1052.593872
2601.228516	875.216736
2599.817383	972.467896
2598.405273	966.962952
2596.993164	982.707825
2595.581055	941.796997
2594.168945	941.611084
2592.755859	943.194702
2591.342773	971.316406
2589.929688	891.524231
2588.516602	983.312622
2587.102539	1034.396118
2585.688477	989.995605
2584.273438	991.567505
2582.859375	1023.180359
2581.444336	936.404907
2580.028320	943.285706
2578.613281	957.228088
2577.197266	951.741699
2575.781250	993.923279
2574.365234	947.835388
2572.948242	892.942078
2571.531250	956.282471
2570.114258	977.261536
2568.696289	968.250061
2567.278320	1036.827759
2565.860352	913.215271
2564.442383	898.933777
2563.023438	932.239075
2561.604492	1009.579102
2560.185547	930.108765
2558.766602	1037.359253
2557.346680	871.632019
2555.926758	934.838440
2554.505859	904.730469
2553.084961	999.582153
2551.665039	972.992188
2550.243164	1044.923950
2548.822266	898.738159
2547.400391	949.554932
2545.978516	959.915466
2544.555664	977.302856
2543.133789	945.476318
2541.710938	980.429993
2540.287109	1001.316223
2538.864258	908.031494
2537.440430	986.871704
2536.016602	993.698853
2534.591797	982.970215
2533.167969	895.027710
2531.743164	966.789368
2530.317383	963.089294
2528.892578	945.359375
2527.466797	950.432739
2526.041016	923.946167
2524.614258	923.763062
2523.187500	948.115295
2521.760742	919.892578
2520.333984	924.965759
2518.906250	940.545715
2517.479492	963.124023
2516.050781	990.945679
2514.623047	939.986450
2513.194336	1004.553528
2511.765625	873.123352
2510.336914	899.191162
2508.907227	1002.206909
2507.477539	967.034058
2506.047852	886.417725
2504.617188	985.878601
2503.186523	931.505371
2501.755859	988.982056
2500.325195	974.810059
2498.893555	992.082886
2497.461914	929.020020
2496.030273	935.819336
2494.597656	960.071838
2493.166016	952.900269
2491.732422	971.904968
2490.299805	954.266541
2488.866211	940.123535
2487.432617	938.192993
2485.999023	971.133362
2484.564453	932.590942
2483.130859	890.578186
2481.695313	946.160339
2480.260742	937.261780
2478.825195	954.493408
2477.389648	943.855164
2475.954102	980.230469
2474.517578	955.665344
2473.081055	863.234680
2471.644531	946.585388
2470.207031	918.562073
2468.770508	911.422058
2467.332031	911.240967
2465.894531	928.446472
2464.456055	926.523560
2463.017578	902.007751
2461.579102	945.269104
2460.140625	983.301331
2458.701172	958.788757
2457.261719	883.924683
2455.821289	899.375061
2454.380859	942.593689
2452.940430	935.463989
2451.500000	940.483582
2450.058594	962.849731
2448.617188	917.560669
2447.175781	913.909729
2445.734375	899.857239
2444.291992	906.612122
2442.849609	927.229370
2441.407227	916.648071
2439.963867	945.917297
2438.520508	938.800598
2437.077148	964.590088
2435.632813	929.769775
2434.188477	889.770020
2432.744141	931.130310
2431.299805	984.586670
2429.854492	920.379272
2428.409180	925.385071
2426.963867	973.622437
2425.517578	826.463318
2424.071289	926.560852
2422.625000	974.769043
2421.177734	936.559509
2419.730469	858.629761
2418.283203	956.913696
2416.835938	930.818970
2415.387695	922.000488
2413.939453	889.018005
2412.491211	854.322754
2411.041992	942.156006
2409.593750	845.356079
2408.143555	927.981445
2406.693359	929.520935
2405.244141	882.782593
2403.794922	982.589355
2402.343750	873.813049
2400.892578	897.762939
2399.441406	963.050659
2397.990234	943.911438
2396.539063	897.225830
2395.085938	905.655701
2393.634766	977.775330
2392.181641	907.015442
2390.728516	862.095032
2389.275391	910.094299
2387.822266	937.433655
2386.369141	926.928284
2384.914063	875.161987
2383.460938	966.096008
2382.005859	890.280823
2380.550781	859.172852
2379.095703	848.693298
2377.640625	941.277405
2376.183594	858.658264
2374.728516	934.033630
2373.271484	875.481628
2371.814453	911.348816
2370.357422	911.166748
2368.900391	921.278381
2367.443359	886.789124
2365.986328	876.322449
2364.527344	898.436768
2363.068359	920.542236
2361.611328	908.361084
2360.152344	920.174377
2358.693359	950.828125
2357.232422	938.648010
2355.773438	931.610291
2354.312500	914.302307
2352.851563	890.153809
2351.392578	876.283875
2349.931641	848.730286
2348.468750	848.560547
2347.007813	911.678040
2345.546875	906.365295
2344.083984	954.057922
2342.621094	868.395081
2341.158203	875.057739
2339.695313	888.552734
2338.232422	949.877808
2336.769531	929.190857
2335.304688	860.695740
2333.839844	903.208191
2332.375000	899.613342
2330.910156	899.433289
2329.445313	945.325012
2327.980469	960.489929
2326.515625	888.659119
2325.048828	850.963745
2323.582031	890.008301
2322.115234	850.622986
2320.648438	935.668335
2319.181641	921.849121
2317.714844	914.849976
2316.246094	914.666687
2314.779297	875.315674
2313.310547	967.081116
2311.841797	815.385620
2310.373047	854.366516
2308.904297	847.388977
2307.433594	928.878845
2305.964844	901.478210
2304.494141	928.506531
2303.023438	817.806091
2301.552734	943.433228
2300.082031	866.764832
2298.611328	951.550964
2297.138672	890.201294
2295.667969	903.610901
2294.195313	903.429688
2292.722656	845.522095
2291.250000	862.327454
2289.777344	862.154480
2288.302734	902.705078
2286.830078	882.166321
2285.355469	837.889832
2283.880859	920.815552
2282.408203	920.630798
2280.931641	856.031799
2279.457031	869.418152
2277.982422	869.243652
2276.505859	875.845520
2275.029297	816.388428
2273.554688	917.829224
2272.078125	900.714233
2270.599609	944.544434
2269.123047	858.042786
2267.646484	817.261169
2266.167969	867.848450
2264.689453	933.637634
2263.210938	886.101196
2261.732422	853.800049
2260.253906	845.176758
2258.775391	866.977112
2257.294922	920.872498
2255.814453	876.764771
2254.333984	863.076599
2252.853516	871.346436
2251.373047	871.171326
2249.892578	889.563965
2248.412109	832.005432
2246.929688	809.903320
2245.447266	840.105774
2243.964844	865.236145
2242.482422	880.238708
2241.000000	898.607056
2239.517578	878.199097
2238.033203	849.372986
2236.548828	898.064941
2235.066406	864.192566
2233.582031	847.176270
2232.095703	894.155273
2230.611328	796.328308
2229.126953	819.733337
2227.640625	819.568359
2226.154297	915.308960
2224.667969	825.967346
2223.181641	881.303040
2221.695313	860.947205
2220.208984	867.498657
2218.720703	875.728333
2217.234375	826.816833
2215.746094	865.294617
2214.257813	883.598633
2212.769531	853.189575
2211.279297	851.338562
2209.791016	831.021118
2208.300781	837.567688
2206.812500	855.858704
2205.322266	850.652832
2203.832031	875.643616
2202.341797	825.152954
2200.849609	868.583557
2199.359375	875.114319
2197.867188	881.642456
2196.375000	839.570068
2194.882813	926.524292
2193.390625	819.130249
2191.898438	867.533630
2190.404297	842.242126
2188.912109	847.094604
2187.417969	872.030212
2185.923828	866.834106
2184.429688	851.601501
2182.935547	903.284973
2181.439453	852.930420
2179.945313	871.151184
2178.449219	819.151550
2176.953125	897.542114
2175.458984	823.834229
2173.960938	850.399597
2172.464844	813.479431
2170.968750	861.746765
2169.470703	938.379700
2167.972656	853.052002
2166.474609	874.577332
2164.976563	789.296875
2163.478516	792.474243
2161.980469	907.408325
2160.480469	858.862000
2158.982422	945.391052
2157.482422	841.844910
2155.982422	813.341309
2154.482422	813.177002
2152.980469	828.006836
2151.480469	837.833557
2149.978516	842.660339
2148.476563	847.485046
2146.974609	825.673157
2145.472656	895.408081
2143.970703	863.611267
2142.468750	761.953796
2140.964844	864.925537
2139.462891	871.402588
2137.958984	841.298828
2136.455078	857.751831
2134.949219	834.310730
2133.445313	883.991150
2131.941406	850.586365
2130.435547	903.565247
2128.929688	841.939209
2127.423828	826.826233
2125.917969	884.757507
2124.412109	821.512878
2122.906250	827.983826
2121.398438	879.243774
2119.890625	882.383057
2118.382813	802.607117
2116.875000	838.919434
2115.367188	825.488770
2113.859375	848.523499
2112.349609	783.731201
2110.841797	844.866821
2109.332031	861.258423
2107.822266	861.084045
2106.312500	846.009277
2104.800781	877.287903
2103.291016	842.356812
2101.779297	799.166870
2100.269531	843.669861
2098.757813	911.309692
2097.246094	861.517517
2095.732422	884.488464
2094.220703	909.102966
2092.707031	836.205261
2091.195313	905.430054
2089.681641	847.429749
2088.167969	906.714661
2086.654297	787.641602
2085.138672	841.961792
2083.625000	871.501404
2082.109375	810.265991
2080.593750	808.451782
2079.078125	852.826172
2077.562500	851.003967
2076.046875	872.267090
2074.531250	872.090149
2073.013672	782.908875
2071.496094	848.665833
2069.978516	813.894897
2068.460938	821.965942
2066.943359	834.974304
2065.425781	852.916992
2063.906250	867.559937
2062.386719	869.029724
2060.869141	905.055542
2059.349609	845.643860
2057.828125	861.921082
2056.308594	820.632263
2054.789063	879.657593
2053.267578	826.874634
2051.746094	859.577759
2050.224609	872.548950
2048.703125	831.299622
2047.181641	837.700989
2045.658203	867.090759
2044.136719	832.435059
2042.613281	778.094788
2041.089844	912.516418
2039.566406	808.955383
2038.042969	856.366943
2036.517578	854.552734
2034.994141	792.063477
2033.468750	832.891235
2031.943359	836.000366
2030.417969	840.747070
2028.892578	860.238770
2027.367188	876.446045
2025.839844	833.682861
2024.314453	903.927979
2022.787109	831.706604
2021.259766	862.638245
2019.732422	837.914490
2018.203125	788.657532
2016.675781	896.465576
2015.146484	876.656555
2013.619141	768.553650
2012.089844	848.506775
2010.560547	827.084900
2009.029297	885.748535
2007.500000	849.622742
2005.968750	834.747742
2004.439453	836.211060
2002.908203	888.293396
2001.376953	788.526428
1999.843750	847.126038
1998.312500	882.855286
1996.781250	820.676086
1995.248047	862.920959
1993.714844	786.093018
1992.181641	808.760803
1990.648438	815.117004
1989.115234	857.328430
1987.580078	837.598877
1986.044922	845.574463
1984.511719	848.659973
1982.976563	838.715576
1981.441406	791.325623
1979.904297	826.978394
1978.369141	862.616516
1976.832031	868.949707
1975.294922	839.488098
1973.759766	800.278931
1972.220703	808.247009
1970.683594	838.974670
1969.146484	877.817749
1967.607422	812.628418
1966.068359	870.960022
1964.531250	851.287231
1962.992188	833.246704
1961.451172	798.974182
1959.912109	884.861938
1958.371094	762.936279
1956.832031	848.796265
1955.291016	868.094360
1953.750000	871.161743
1952.208984	856.386414
1950.666016	838.373901
1949.125000	825.232483
1947.582031	836.410706
1946.039063	837.860535
1944.496094	878.196716
1942.953125	848.858093
1941.410156	817.911865
1939.865234	853.369324
1938.322266	832.148499
1936.777344	838.453064
1935.232422	792.969238
1933.687500	796.043213
1932.142578	870.292175
1930.595703	831.298828
1929.050781	797.172302
1927.503906	818.025879
1925.957031	806.544495
1924.410156	798.299683
1922.863281	804.599121
1921.314453	825.433960
1919.767578	857.565186
1918.218750	807.335083
1916.669922	799.098328
1915.121094	760.198669
1913.572266	884.296570
1912.021484	858.302124
1910.472656	854.900513
1908.921875	835.373413
1907.371094	786.831665
1905.820313	828.583496
1904.269531	799.403381
1902.718750	794.405701
1901.166016	839.352295
1899.615234	844.012634
1898.062500	819.684204
1896.509766	822.736511
1894.957031	832.226440
1893.402344	790.211853
1891.849609	815.795105
1890.294922	820.454285
1888.740234	802.593811
1887.185547	807.253662
1885.630859	787.795410
1884.076172	805.315674
1882.519531	797.115234
1880.964844	832.300659
1879.408203	796.788696
1877.851563	799.837646
1876.294922	820.548828
1874.736328	866.938477
1873.179688	820.212585
1871.621094	856.954468
1870.064453	839.129883
1868.505859	858.207397
1866.947266	814.728943
1865.386719	819.372314
1863.828125	884.933044
1862.267578	772.554810
1860.708984	822.073364
1859.148438	823.506958
1857.587891	783.292419
1856.025391	819.966187
1854.464844	875.838867
1852.902344	827.634033
1851.341797	825.863708
1849.779297	860.898315
1848.216797	844.723083
1846.652344	857.346008
1845.089844	837.979675
1843.525391	860.191833
1841.962891	848.825500
1840.398438	875.820923
1838.833984	829.302429
1837.267578	758.839661
1835.703125	848.128723
1834.136719	843.163879
1832.572266	812.655823
1831.005859	823.662659
1829.439453	837.856750
1827.873047	850.449341
1826.304688	811.988403
1824.738281	813.416504
1823.169922	841.952332
1821.601563	793.950928
1820.033203	766.690613
1818.464844	814.341797
1816.896484	809.394531
1815.326172	793.298523
1813.755859	821.802979
1812.185547	775.456970
1810.615234	824.649109
1809.044922	827.662903
1807.474609	805.214111
1805.902344	790.729492
1804.332031	831.924500
1802.759766	844.476196
1801.187500	767.981384
1799.615234	820.283386
1798.041016	820.114624
1796.468750	829.480164
1794.894531	837.253113
1793.320313	765.603333
1791.746094	849.613098
1790.171875	839.911804
1788.597656	795.291504
1787.021484	758.624939
1785.445313	848.913818
1783.871094	824.942627
1782.294922	791.464661
1780.716797	840.460754
1779.140625	791.138794
1777.564453	881.327820
1775.986328	846.280823
1774.408203	861.951233
1772.830078	790.487244
1771.251953	763.399536
1769.673828	824.998413
1768.093750	794.748291
1766.513672	905.383179
1764.935547	814.993469
1763.355469	833.811768
1761.773438	851.040405
1760.193359	819.234314
1758.613281	836.458740
1757.031250	853.675964
1755.449219	763.408325
1753.867188	813.818298
1752.285156	823.129944
1750.701172	835.596802
1749.119141	867.009521
1747.535156	817.883972
1745.951172	855.601746
1744.367188	811.233521
1742.783203	864.716492
1741.199219	810.898865
1739.613281	826.504517
1738.029297	752.216248
1736.443359	824.586853
1734.857422	835.450928
1733.271484	775.390625
1731.683594	830.379089
1730.097656	776.645874
1728.509766	804.835938
1726.921875	785.773438
1725.333984	787.185547
1723.746094	840.540588
1722.158203	778.991882
1720.568359	811.872314
1718.978516	836.873779
1717.390625	813.109680
1715.800781	805.079651
1714.208984	863.080872
1712.619141	829.895386
1711.027344	810.866516
1709.437500	871.972717
1707.845703	823.097839
1706.253906	807.222961
1704.662109	805.485962
1703.068359	846.134888
1701.476563	877.349976
1699.882813	823.816650
1698.289063	833.059448
1696.695313	847.003906
1695.101563	733.918274
1693.505859	865.468140
1691.912109	826.100342
1690.316406	777.345398
1688.720703	833.593140
1687.125000	816.188293
1685.529297	775.296753
1683.933594	803.323120
1682.335938	861.084412
1680.738281	817.078247
1679.140625	813.779236
1677.542969	747.896118
1675.945313	785.284790
1674.347656	860.193665
1672.748047	820.923950
1671.148438	850.457520
1669.548828	776.819580
1667.949219	861.044189
1666.349609	751.499939
1664.748047	829.446655
1663.148438	807.410706
1661.546875	816.611877
1659.945313	842.981018
1658.343750	805.348328
1656.742188	809.862732
1655.138672	786.293335
1653.537109	822.005371
1651.933594	835.870178
1650.330078	788.922852
1648.726563	804.347473
1647.121094	821.324097
1645.517578	766.617981
1643.912109	822.541443
1642.306641	834.831055
1640.701172	795.727966
1639.095703	851.610474
1637.490234	812.520081
1635.884766	821.688904
1634.277344	838.633423
1632.669922	794.903137
1631.062500	878.722290
1629.455078	794.573303
1627.845703	802.181519
1626.238281	808.232239
1624.628906	818.942322
1623.019531	801.682190
1621.410156	832.582336
1619.800781	793.584412
1618.191406	791.867004
1616.580078	797.911987
1614.968750	732.560852
1613.359375	833.270081
1611.746094	814.480347
1610.134766	815.862305
1608.523438	784.677917
1606.910156	837.229370
1605.298828	829.304932
1603.685547	844.630432
1602.070313	808.817383
1600.457031	814.845886
1598.843750	822.420654
1597.228516	857.865051
1595.613281	815.886169
1593.998047	801.785950
1592.382813	798.524231
1590.767578	846.321594
1589.152344	850.786255
1587.535156	847.516235
1585.917969	765.389282
1584.300781	811.607666
1582.683594	848.533264
1581.066406	823.632324
1579.447266	837.365601
1577.828125	792.397034
1576.210938	903.422668
1574.591797	764.275513
1572.970703	794.989929
1571.351563	779.390991
1569.730469	802.374207
1568.111328	814.548828
1566.490234	780.446838
1564.869141	809.583618
1563.248047	800.164612
1561.625000	832.367920
1560.003906	826.030151
1558.380859	844.347534
1556.757813	831.848022
1555.134766	874.798706
1553.511719	836.121033
1551.886719	815.933411
1550.263672	788.058289
1548.638672	824.826660
1547.013672	840.040161
1545.388672	826.021179
1543.761719	855.069031
1542.136719	842.590271
1540.509766	807.057800
1538.882813	828.406677
1537.255859	800.574951
1535.628906	826.525024
1534.001953	815.600891
1532.373047	823.109131
1530.746094	813.725525
1529.117188	813.555847
1527.488281	791.900452
1525.859375	794.804077
1524.228516	842.193848
1522.599609	817.478455
1520.968750	837.242249
1519.337891	818.670471
1517.707031	787.844238
1516.076172	822.926208
1514.443359	770.662048
1512.810547	782.755676
1511.179688	819.348083
1509.546875	820.708252
1507.914063	783.796448
1506.279297	840.262573
1504.646484	788.059875
1503.011719	758.827332
1501.376953	804.556091
1499.742188	737.100830
1498.107422	782.814941
1496.472656	782.651428
1494.835938	770.261597
1493.201172	800.660217
1491.564453	824.935486
1489.927734	801.853027
1488.289063	763.509949
1486.652344	789.304321
1485.013672	781.507446
1483.376953	802.708984
1481.738281	747.614380
1480.099609	791.695435
1478.458984	808.306091
1476.820313	762.393494
1475.179688	768.331909
1473.539063	855.047791
1471.898438	775.629761
1470.257813	799.843689
1468.617188	816.431519
1466.974609	814.737854
1465.333984	802.386963
1463.691406	729.151733
1462.048828	765.525208
1460.406250	821.664246
1458.761719	804.758179
1457.119141	777.212402
1455.474609	798.338745
1453.830078	790.570007
1452.185547	808.644592
1450.539063	770.483032
1448.894531	832.615967
1447.248047	809.655823
1445.603516	791.261414
1443.957031	853.350830
1442.308594	797.002441
1440.662109	807.459961
1439.015625	743.557312
1437.367188	769.193054
1435.718750	822.120850
1434.070313	788.585388
1432.421875	783.871521
1430.771484	730.651672
1429.123047	851.743103
1427.472656	774.287354
1425.822266	796.848877
1424.171875	792.138000
1422.521484	776.829041
1420.869141	828.141113
1419.218750	765.907776
1417.566406	814.173828
1415.914063	789.794800
1414.261719	785.091064
1412.607422	789.463501
1410.955078	745.447998
1409.300781	835.996521
1407.646484	779.898132
1405.992188	829.601257
1404.337891	823.383972
1402.683594	773.365356
1401.027344	795.855469
1399.371094	765.491516
1397.714844	800.049988
1396.058594	778.753052
1394.402344	745.393860
1392.744141	798.037598
1391.087891	808.427856
1389.429688	726.829102
1387.771484	793.012024
1386.113281	794.352783
1384.453125	806.241882
1382.794922	795.525757
1381.134766	787.826843
1379.474609	801.215698
1377.814453	781.472900
1376.154297	745.178772
1374.492188	763.083313
1372.832031	776.465942
1371.169922	797.365173
1369.507813	755.081482
1367.845703	765.449524
1366.181641	784.834290
1364.519531	739.573303
1362.855469	764.966797
1361.191406	781.334167
1359.527344	751.124817
1357.863281	764.484253
1356.199219	768.828247
1354.533203	765.663940
1352.867188	742.988037
1351.201172	783.349792
1349.535156	756.178589
1347.869141	795.020447
1346.201172	799.352295
1344.535156	772.194763
1342.867188	760.039429
1341.199219	783.859863
1339.531250	789.688660
1337.861328	764.053955
1336.193359	762.395264
1334.523438	769.722290
1332.853516	736.621765
1331.183594	790.354431
1329.511719	745.290894
1327.841797	752.615173
1326.169922	743.481018
1324.500000	747.811218
1322.828125	765.597351
1321.154297	738.526123
1319.482422	757.801331
1317.808594	733.731812
1316.136719	772.422363
1314.462891	787.196838
1312.789063	795.991394
1311.113281	804.782227
1309.439453	752.364929
1307.763672	702.954712
1306.087891	756.524170
1304.412109	772.774902
1302.736328	753.221985
1301.060547	750.080688
1299.382813	751.413391
1297.707031	763.179504
1296.029297	733.213074
1294.351563	741.998108
1292.671875	792.489319
1290.994141	772.960815
1289.314453	795.132874
1287.636719	726.484924
1285.957031	791.820435
1284.275391	758.915771
1282.595703	752.804504
1280.914063	749.670654
1279.234375	743.563843
1277.552734	741.919983
1275.871094	768.520264
1274.189453	743.092773
1272.505859	744.421692
1270.822266	769.518921
1269.140625	736.680969
1267.457031	752.859558
1265.771484	798.723572
1264.087891	822.303589
1262.404297	823.613831
1260.718750	706.229370
1259.033203	717.946960
1257.347656	714.829102
1255.662109	670.195984
1253.974609	799.024902
1252.287109	733.643188
1250.601563	724.597290
1248.914063	708.147766
1247.224609	712.441467
1245.537109	737.465271
1243.849609	758.036865
1242.160156	746.034668
1240.470703	756.236206
1238.781250	773.831421
1237.091797	792.898376
1235.400391	686.244385
1233.708984	742.288330
1232.019531	731.782776
1230.328125	740.496033
1228.634766	766.938293
1226.943359	726.885864
1225.250000	709.006775
1223.558594	742.822693
1221.865234	696.894714
1220.171875	751.365051
1218.476563	742.350830
1216.783203	731.864807
1215.087891	714.007141
1213.392578	709.431091
1211.697266	729.925171
1210.001953	756.307556
1208.306641	741.407593
1206.609375	714.724609
1204.912109	699.839661
1203.214844	740.936279
1201.517578	771.706360
1199.820313	750.929016
1198.121094	771.379150
1196.423828	718.231323
1194.724609	743.094055
1193.025391	784.128967
1191.326172	782.491821
1189.625000	738.209717
1187.923828	711.589050
1186.224609	798.162964
1184.523438	725.983154
1182.822266	743.460571
1181.119141	735.957886
1179.417969	768.112366
1177.714844	720.962036
1176.011719	792.743103
1174.308594	758.816956
1172.605469	764.525574
1170.900391	764.363220
1169.197266	759.800537
1167.492188	790.435364
1165.787109	760.944031
1164.080078	744.657959
1162.375000	773.810791
1160.667969	729.689209
1158.962891	750.043213
1157.255859	783.570068
1155.548828	762.903259
1153.839844	794.949036
1152.132813	762.579102
1150.423828	724.369324
1148.714844	747.624329
1147.005859	759.167419
1145.296875	779.480164
1143.585938	852.420898
1141.876953	811.308716
1140.166016	808.213196
1138.455078	812.424927
1136.744141	775.729980
1135.033203	819.382263
1133.320313	829.429810
1131.607422	781.074890
1129.894531	772.150879
1128.181641	741.340637
1126.468750	856.445557
1124.753906	762.905823
1123.041016	823.996277
1121.326172	785.910522
1119.611328	865.921143
1117.896484	823.470215
1116.179688	824.752014
1114.464844	805.637390
1112.748047	801.096252
1111.031250	780.538452
1109.314453	847.344482
1107.595703	752.549438
1105.878906	832.430542
1104.160156	845.348145
1102.441406	821.893188
1100.722656	802.811279
1099.003906	836.083557
1097.283203	844.627869
1095.562500	863.342590
1093.843750	847.174133
1092.123047	881.861267
1090.400391	839.550476
1088.679688	858.250122
1086.957031	824.673645
1085.236328	811.433594
1083.513672	846.091064
1081.789063	825.597168
1080.066406	845.730225
1078.341797	770.131958
1076.619141	822.168884
1074.894531	794.448730
1073.169922	813.121643
1071.443359	773.822327
1069.718750	857.687378
1067.992188	748.867798
1066.265625	821.116882
1064.539063	786.192749
1062.812500	749.835938
1061.085938	797.435120
1059.357422	807.393494
1057.628906	740.675964
1055.900391	746.303101
1054.171875	730.237549
1052.443359	798.029785
1050.712891	758.833618
1048.982422	752.891174
1047.251953	785.960266
1045.521484	745.347168
1043.791016	749.520386
1042.058594	762.354919
1040.328125	773.740356
1038.595703	712.959045
1036.863281	727.235962
1035.128906	761.703369
1033.396484	713.944275
1031.662109	713.791626
1029.927734	702.105469
1028.193359	774.024658
1026.458984	755.125122
1024.724609	773.693665
1022.988281	666.933960
1021.251953	740.239136
1019.515625	737.201111
1017.779297	703.934021
1016.042969	731.128784
1014.304688	713.705261
1012.568359	730.815918
1010.830078	711.961548
1009.089844	665.793213
1007.351563	700.155273
1005.613281	712.941833
1003.873047	721.411621
1002.132813	719.820435
1000.392578	721.102722
998.652344	716.639893
996.910156	717.922241
995.169922	742.172607
993.427734	733.402283
991.685547	734.680054
989.941406	733.088074
988.199219	747.274048
986.455078	729.905945
984.712891	695.340942
982.968750	731.026550
981.222656	709.373657
979.478516	702.057800
977.734375	699.042358
975.988281	749.018005
974.242188	757.448486
972.496094	704.318970
970.748047	712.755371
969.001953	734.066467
967.253906	738.200867
965.505859	673.678345
963.757813	697.843994
962.009766	651.943848
960.259766	684.680054
958.511719	661.667725
956.761719	691.530151
955.011719	681.382385
953.259766	696.946045
951.509766	706.791443
949.757813	716.632629
948.007813	689.361023
946.255859	716.324951
944.501953	720.451050
942.750000	707.459351
940.996094	713.011536
939.244141	655.829712
937.490234	667.092163
935.734375	732.503662
933.980469	655.407166
932.224609	666.662292
930.470703	653.701416
928.714844	619.387817
926.958984	696.127686
925.201172	684.591919
923.445313	683.021790
921.687500	695.678894
919.929688	678.461121
918.171875	681.159363
916.414063	682.434631
914.654297	687.973633
912.894531	616.769287
911.136719	653.578003
909.375000	630.709167
907.615234	695.903198
905.855469	661.675781
904.093750	628.882629
902.332031	658.552490
900.570313	662.667725
898.808594	624.220703
897.044922	649.617126
895.283203	679.256836
893.519531	681.946167
891.755859	633.605652
889.992188	670.315308
888.226563	639.000244
886.462891	645.945374
884.697266	627.395142
882.931641	654.162781
881.166016	614.384216
879.398438	693.510193
877.632813	682.040588
875.865234	606.913635
874.097656	627.999023
872.330078	606.652100
870.562500	644.694031
868.792969	671.411560
867.023438	590.714844
865.253906	616.019470
863.484375	645.550964
861.714844	659.534607
859.943359	605.737305
858.173828	574.549927
856.402344	647.817078
854.628906	629.333557
852.857422	643.305420
851.085938	640.345703
849.312500	599.313232
847.539063	603.413513
845.765625	637.112244
843.992188	617.245483
842.216797	605.840820
840.441406	653.603394
838.667969	653.462341
836.892578	612.488708
835.115234	658.811096
833.339844	584.076050
831.562500	644.455566
829.785156	656.977661
828.007813	586.510742
826.230469	618.726624
824.451172	617.187073
822.673828	555.207825
820.894531	604.272888
819.115234	623.812073
817.335938	660.198914
815.554688	577.198120
813.775391	624.811829
811.994141	610.639099
810.212891	646.997192
808.431641	618.794128
806.648438	634.091797
804.867188	652.187927
803.083984	632.415344
801.300781	626.670837
799.515625	640.551758
797.732422	639.011841
795.947266	673.899597
794.164063	649.941345
792.378906	611.989075
790.591797	669.261963
788.806641	625.722534
787.019531	618.589478
785.234375	649.238464
783.447266	570.758545
781.658203	658.747803
779.871094	585.892944
778.082031	612.328308
776.294922	591.230103
774.505859	556.166992
772.716797	585.385681
770.925781	604.814087
769.136719	622.837585
767.345703	552.892944
765.554688	582.086914
763.763672	597.312256
761.970703	599.973450
760.179688	609.608337
758.386719	598.318787
756.593750	602.372253
754.800781	603.635742
753.005859	602.111145
751.212891	592.226318
749.417969	610.209167
747.623047	617.041199
745.828125	612.729675
744.033203	570.828857
742.236328	572.097046
740.439453	606.764465
738.642578	552.369873
736.845703	606.501282
735.048828	603.588196
733.250000	596.504944
731.451172	586.644470
729.652344	554.550598
727.853516	594.727173
726.054688	618.215271
724.253906	570.856934
722.455078	547.126038
720.654297	574.774109
718.853516	569.097168
717.050781	570.361328
715.250000	586.886780
713.447266	581.210754
711.644531	607.434387
709.841797	543.521851
708.037109	607.170532
706.234375	576.548096
704.429688	541.782043
702.625000	555.517639
700.820313	596.947815
699.013672	603.741699
697.208984	549.617798
695.402344	563.339600
693.595703	574.287720
691.789063	539.574768
689.982422	553.289673
688.173828	572.530273
686.365234	555.814331
684.556641	608.221680
682.748047	606.707336
680.939453	543.016235
679.128906	649.267456
677.318359	567.640137
675.507813	597.894653
673.697266	589.481445
671.886719	592.113586
670.074219	534.028198
668.261719	547.708130
666.449219	576.554565
664.636719	587.461182
662.824219	588.711975
661.009766	576.178040
659.195313	620.152344
657.380859	597.972229
655.566406	593.709412
653.751953	561.904114
651.935547	625.119873
650.119141	587.815063
648.302734	611.084351
646.486328	591.687012
644.669922	575.049438
642.851563	585.927490
641.033203	548.671631
639.214844	587.046875
637.396484	588.293457
635.578125	582.668335
633.757813	637.497986
631.937500	590.656006
630.117188	574.047363
628.296875	642.573120
626.474609	575.169678
624.654297	573.671814
622.832031	621.570923
621.009766	563.818787
619.185547	607.584534
617.363281	590.997253
615.539063	616.915833
613.714844	611.298706
611.890625	605.683960
610.066406	560.340881
608.242188	601.310425
606.416016	616.242859
604.589844	607.893494
602.763672	576.277649
600.937500	654.158142
599.109375	585.603638
597.281250	554.013245
595.453125	631.847412
593.625000	604.362671
591.796875	642.507690
589.966797	587.697754
588.138672	598.500854
586.308594	599.736206
584.478516	629.653687
582.646484	557.142212
580.816406	612.995483
578.984375	659.269714
577.152344	608.633545
575.320313	598.950012
573.486328	653.381104
571.654297	664.148254
569.820313	609.464783
567.986328	598.426208
566.152344	625.552490
564.316406	636.316162
562.482422	610.293945
560.646484	603.350586
558.810547	627.728516
556.974609	578.581848
555.136719	651.953064
553.300781	608.265625
551.462891	594.527710
549.625000	612.079895
547.785156	630.984192
545.947266	569.664856
544.107422	622.552185
542.267578	622.415833
540.427734	653.529358
538.587891	605.842529
536.748047	639.662109
534.906250	615.081665
533.064453	600.014404
531.222656	552.380920
529.378906	546.832214
527.537109	622.682373
525.693359	538.454712
523.849609	562.744873
522.005859	551.775818
520.162109	588.251099
518.316406	552.888977
516.470703	579.864197
514.625000	591.927795
512.779297	585.026855
510.933594	561.881653
509.085938	594.245667
507.238281	591.408630
505.390625	566.924133
503.542969	547.861328
501.695313	572.085144
499.845703	536.803711
497.996094	593.463745
496.146484	567.653870
494.296875	608.067078
492.447266	576.861450
490.595703	551.072083
488.744141	537.447388
486.892578	594.032471
485.041016	516.964722
483.187500	535.743896
481.333984	559.911560
479.480469	532.810791
477.626953	532.693726
475.773438	604.036316
473.917969	564.811646
472.064453	525.604126
470.208984	557.826355
468.351563	538.844238
466.496094	565.662048
464.638672	510.330475
462.783203	569.452026
460.925781	527.603149
459.066406	530.178345
457.208984	556.968445
455.349609	556.845947
453.490234	535.207642
451.630859	578.112183
449.771484	556.478577
447.912109	510.665070
446.050781	564.295105
444.189453	523.872986
442.328125	550.617065
440.466797	535.726501
438.603516	551.717102
436.740234	543.543152
434.876953	599.778503
433.013672	533.913391
431.150391	532.454651
429.285156	557.814514
427.419922	559.032288
425.554688	499.935516
423.689453	521.265625
421.824219	501.054993
419.957031	534.430237
418.089844	536.990723
416.222656	510.095734
414.355469	556.832153
412.488281	501.841461
410.619141	564.614441
408.750000	485.568390
406.880859	522.907410
405.011719	504.073212
403.140625	494.604706
401.269531	517.215698
399.398438	518.437805
397.527344	529.010559
395.656250	487.490570
393.783203	556.818420
391.910156	529.995544
390.037109	525.874512
388.164063	467.044312
386.291016	482.950653
384.416016	528.194092
382.541016	553.414551
380.666016	522.627991
378.791016	483.857361
376.914063	567.707214
375.039063	496.967255
373.162109	499.521637
371.285156	538.032471
369.406250	480.660461
367.529297	497.859558
365.650391	487.102539
363.771484	481.672577
361.892578	528.126465
360.011719	486.779755
358.132813	525.233643
356.251953	507.835236
354.371094	507.722992
352.490234	495.651367
350.607422	510.155640
348.724609	536.607544
346.841797	516.569763
344.958984	509.817322
343.076172	518.996094
341.193359	497.648315
339.308594	509.479156
337.423828	466.919250
335.539063	469.468323
333.652344	527.703552
331.767578	469.260620
329.880859	522.168823
327.994141	469.052948
326.107422	434.506561
324.218750	454.276703
322.330078	509.789581
320.443359	513.648193
318.552734	510.887421
316.664063	468.430298
314.775391	482.879120
312.884766	509.225433
310.994141	474.731018
309.103516	441.573944
307.210938	449.406830
305.320313	440.056824
303.427734	426.747314
301.535156	482.130829
299.642578	484.665222
297.748047	508.323608
295.853516	444.849579
293.960938	463.227264
292.064453	476.319000
290.169922	466.979340
288.275391	476.107819
286.378906	462.816589
284.482422	514.126648
282.585938	470.519226
280.687500	446.696472
278.791016	484.801880
276.892578	454.400940
274.994141	456.933746
273.095703	471.314056
271.195313	496.217804
269.294922	435.574646
267.396484	444.687469
265.494141	409.074280
263.593750	468.161163
261.691406	432.558502
259.791016	427.204559
257.888672	400.826019
255.986328	473.001068
254.082031	445.310425
252.177734	460.971222
250.275391	454.303741
248.371094	431.886475
246.464844	410.791595
244.560547	443.503876
242.654297	434.222382
240.748047	424.944977
238.841797	432.718109
236.935547	436.554871
235.027344	422.040314
233.119141	482.224548
231.210938	433.643585
229.302734	476.770874
227.392578	451.783997
225.484375	458.229675
223.574219	452.891998
221.664063	395.210876
219.751953	418.673340
217.841797	395.035065
215.929688	438.103638
214.017578	481.153046
212.105469	439.215881
210.193359	407.752533
208.279297	454.699677
206.365234	423.246857
204.451172	427.070709
202.537109	416.529755
200.621094	447.767670
198.705078	369.358704
196.789063	422.775848
194.873047	421.377136
192.957031	388.676208
191.039063	409.453491
189.123047	422.399292
187.203125	401.450592
185.285156	454.789093
183.367188	415.602844
181.447266	405.089905
179.527344	406.301849
177.607422	402.305420
175.687500	420.439087
173.765625	434.660522
171.843750	416.348358
169.921875	434.466705
168.000000	408.359650
166.078125	421.270752
164.154297	388.678589
162.230469	411.985382
160.306641	411.893463
158.382813	436.483673
156.457031	389.630615
154.531250	401.229980
152.605469	415.420502
150.679688	439.987854
148.753906	428.211182
146.826172	444.980743
144.898438	402.079376
142.970703	413.660278
141.042969	478.390472
139.113281	399.217773
137.183594	426.341919
135.253906	426.246704
133.324219	414.493835
131.394531	428.646301
129.462891	391.003784
127.531250	453.048828
125.599609	388.240814
123.667969	381.684814
121.734375	360.902557
119.802734	384.100739
117.869141	405.995514
115.935547	341.270233
114.000000	361.872345
112.066406	369.544098
110.130859	368.169647
108.195313	364.212708
106.257813	379.626190
104.322266	365.340729
102.384766	312.341614
100.447266	332.917816
