#Wave		#Intensity
3501.405273	6218.937500
3500.167969	6218.937500
3498.929688	6177.377930
3497.691406	6246.880859
3496.453125	6304.245117
3495.213867	6232.418457
3493.975586	6372.497070
3492.736328	6300.683594
3491.497070	6188.554688
3490.256836	6284.192871
3489.017578	6345.516602
3487.777344	6340.289063
3486.537109	6367.312500
3485.296875	6299.610352
3484.055664	6294.393555
3482.814453	6325.438477
3481.573242	6279.936523
3480.332031	6361.314941
3479.089844	6400.382813
3477.848633	6401.188965
3476.606445	6524.761719
3475.363281	6237.800293
3474.121094	6313.072754
3472.877930	6396.362793
3471.634766	6387.112305
3470.391602	6406.014648
3469.147461	6410.837402
3467.904297	6494.044922
3466.660156	6508.895996
3465.416016	6393.146484
3464.170898	6448.186035
3462.926758	6408.810059
3461.681641	6570.250488
3460.436523	6595.110352
3459.190430	6397.153809
3457.945313	6514.353027
3456.699219	6591.377441
3455.453125	6499.857422
3454.206055	6580.866699
3452.959961	6489.382813
3451.712891	6564.347656
3450.465820	6430.803711
3449.218750	6457.648926
3447.970703	6588.684082
3446.722656	6647.544434
3445.474609	6560.155762
3444.226563	6556.914551
3442.978516	6581.706543
3441.729492	6658.540039
3440.480469	6683.303223
3439.231445	6676.037109
3437.981445	6494.701172
3436.731445	6709.522949
3435.481445	6506.247559
3434.231445	6644.997070
3432.981445	6747.706543
3431.730469	6560.529785
3430.479492	6795.120605
3429.228516	6645.970215
3427.977539	6764.582520
3426.725586	6663.432617
3425.473633	6646.196289
3424.221680	6688.867188
3422.969727	6747.491211
3421.716797	6688.333984
3420.463867	6685.073730
3419.210938	6643.906250
3417.958008	6558.868652
3416.704102	6717.181152
3415.450195	6847.517090
3414.196289	6798.374023
3412.942383	6753.236328
3411.687500	6714.093262
3410.433594	6690.905273
3409.178711	6617.922363
3407.922852	6654.513672
3406.667969	6681.134277
3405.412109	6781.411621
3404.156250	6622.867676
3402.900391	6597.730957
3401.643555	6863.127441
3400.386719	6619.107910
3399.129883	6649.681152
3397.873047	6684.220215
3396.616211	6591.488770
3395.358398	6795.005859
3394.100586	6620.795410
3392.842773	6649.350586
3391.583984	6630.209473
3390.326172	6708.413574
3389.067383	6862.061035
3387.808594	6691.972656
3386.548828	6740.339355
3385.289063	6639.812500
3384.030273	6870.755371
3382.769531	6573.801270
3381.509766	6788.797363
3380.249023	6801.395508
3378.988281	6750.528809
3377.727539	6812.697266
3376.466797	6724.181641
3375.205078	6881.466797
3373.943359	6743.430664
3372.681641	6744.133789
3371.419922	6723.046875
3370.157227	6767.323242
3368.894531	6872.966309
3367.631836	6671.709961
3366.369141	6793.165039
3365.105469	6744.381348
3363.842773	6762.888184
3362.578125	6787.322754
3361.314453	6784.057617
3360.050781	6737.288574
3358.786133	6777.529785
3357.521484	6827.639160
3356.255859	6689.975098
3354.991211	6777.625000
3353.725586	6815.851074
3352.459961	6713.820801
3351.194336	6813.264648
3349.927734	6881.078613
3348.661133	6702.102539
3347.394531	6827.149414
3346.127930	6790.333008
3344.860352	6818.638672
3343.593750	6700.959961
3342.326172	6748.993652
3341.057617	6820.671387
3339.790039	6643.913574
3338.521484	6686.016602
3337.252930	6645.332031
3335.984375	6720.914063
3334.714844	6879.207031
3333.446289	6921.231934
3332.176758	6886.439941
3330.906250	6656.742676
3329.636719	6797.209961
3328.366211	6760.492188
3327.095703	6611.626465
3325.825195	6724.477539
3324.554688	6748.770996
3323.283203	6700.289063
3322.011719	6679.353027
3320.740234	6742.957520
3319.467773	6830.123535
3318.195313	6783.626953
3316.922852	6729.289063
3315.650391	6655.327637
3314.377930	6714.946289
3313.104492	6815.778320
3311.831055	6743.804688
3310.557617	6793.557617
3309.283203	6631.339355
3308.009766	6700.714844
3306.735352	6750.446289
3305.460938	6694.243164
3304.185547	6773.371582
3302.911133	6666.208008
3301.635742	6657.098145
3300.359375	6759.706543
3299.083984	6779.975098
3297.807617	6743.419922
3296.531250	6838.116699
3295.254883	6827.023438
3293.978516	6702.367188
3292.701172	6789.186523
3291.423828	6629.353516
3290.146484	6755.291016
3288.869141	6732.482910
3287.590820	6719.463867
3286.312500	6700.582031
3285.034180	6693.439941
3283.754883	6870.075195
3282.476563	6796.443359
3281.197266	6693.524414
3279.917969	6887.643555
3278.637695	6653.856934
3277.357422	6683.840332
3276.078125	6670.850098
3274.796875	6765.249023
3273.516602	6828.378906
3272.235352	6807.560547
3270.954102	6726.258301
3269.672852	6592.310547
3268.391602	6688.583984
3267.109375	6560.544434
3265.827148	6670.435547
3264.544922	6676.961426
3263.262695	6757.551270
3261.979492	6606.209961
3260.696289	6624.434082
3259.413086	6514.083496
3258.128906	6686.179199
3256.845703	6571.963867
3255.561523	6599.913574
3254.277344	6678.461426
3252.992188	6683.025879
3251.707031	6666.184570
3250.422852	6740.783203
3249.136719	6692.816406
3247.851563	6590.417969
3246.565430	6666.931152
3245.279297	6636.500488
3243.993164	6687.709473
3242.707031	6589.274902
3241.419922	6615.216309
3240.132813	6567.334961
3238.845703	6618.517090
3237.557617	6584.244629
3236.270508	6569.398438
3234.982422	6585.612793
3233.694336	6656.156250
3232.405273	6530.712402
3231.116211	6512.006836
3229.827148	6663.980469
3228.538086	6635.560059
3227.249023	6570.314941
3225.958984	6588.443359
3224.668945	6563.929199
3223.378906	6394.103027
3222.087891	6553.671875
3220.797852	6695.748047
3219.506836	6365.264160
3218.215820	6466.662109
3216.923828	6502.205566
3215.631836	6437.095215
3214.339844	6513.265625
3213.047852	6423.026855
3211.755859	6533.986816
3210.462891	6619.763672
3209.169922	6456.080566
3207.876953	6483.843750
3206.583008	6496.133301
3205.289063	6436.918457
3203.995117	6331.355957
3202.701172	6415.139648
3201.407227	6423.568848
3200.112305	6441.649902
3198.817383	6430.764648
3197.521484	6394.790527
3196.226563	6528.655762
3194.930664	6280.434082
3193.634766	6431.631836
3192.338867	6413.042480
3191.041992	6433.026855
3189.745117	6302.620117
3188.448242	6324.545410
3187.151367	6348.389160
3185.854492	6241.194824
3184.556641	6438.431641
3183.258789	6412.158691
3181.959961	6193.317871
3180.662109	6294.178711
3179.363281	6240.997070
3178.064453	6301.391602
3176.764648	6196.271973
3175.465820	6302.826172
3174.166016	6184.280762
3172.866211	6231.176270
3171.565430	6249.210938
3170.265625	6286.462891
3168.964844	6231.439453
3167.664063	6305.192871
3166.362305	6305.906250
3165.061523	6151.018555
3163.759766	6190.172363
3162.458008	6258.115234
3161.155273	6237.716797
3159.853516	6157.820801
3158.550781	6193.104492
3157.248047	6337.744629
3155.944336	6150.442871
3154.640625	6258.592285
3153.337891	6242.050781
3152.033203	6123.897949
3150.729492	6076.716797
3149.424805	6205.878418
3148.120117	6246.844727
3146.815430	6103.874023
3145.509766	6198.477051
3144.205078	6099.617188
3142.899414	6104.190918
3141.592773	6143.221680
3140.287109	6178.409180
3138.980469	6093.023438
3137.673828	6143.512207
3136.367188	6019.907227
3135.059570	6223.393066
3133.752930	6178.218750
3132.445313	6169.385254
3131.136719	5984.703125
3129.829102	6067.641113
3128.520508	6049.279785
3127.211914	6084.414551
3125.902344	6024.037109
3124.593750	6017.151367
3123.284180	6180.189941
3121.974609	6140.825684
3120.664063	6004.142578
3119.354492	6004.897461
3118.043945	6034.268066
3116.733398	6050.275391
3115.421875	6058.647949
3114.111328	6118.497070
3112.799805	6166.885254
3111.488281	6081.838867
3110.175781	6063.520020
3108.864258	6039.491699
3107.551758	6070.713379
3106.238281	6164.769531
3104.925781	5976.982422
3103.612305	6017.715332
3102.298828	6086.983398
3100.985352	6078.200684
3099.671875	6021.855469
3098.357422	5986.456543
3097.042969	5989.108887
3095.727539	6143.883301
3094.413086	6002.014648
3093.097656	6061.686035
3091.782227	6043.415527
3090.466797	6110.655762
3089.150391	5961.302246
3087.833984	5969.652344
3086.517578	6109.028320
3085.201172	5881.916992
3083.883789	6106.676758
3082.566406	6065.645996
3081.249023	5910.779297
3079.931641	6065.208008
3078.613281	6172.157715
3077.294922	6013.565918
3075.976563	5947.941895
3074.658203	6028.311523
3073.338867	5938.070313
3072.019531	5895.237793
3070.700195	6057.038086
3069.379883	5891.072754
3068.060547	6041.447754
3066.740234	6011.881348
3065.418945	6158.388184
3064.098633	6087.168945
3062.777344	6055.717773
3061.456055	6039.414551
3060.134766	6026.900391
3058.812500	6108.957031
3057.491211	5931.920898
3056.167969	6023.416504
3054.845703	6054.389160
3053.523438	6053.222168
3052.200195	6038.828613
3050.876953	6111.340820
3049.552734	6019.501465
3048.229492	6074.993164
3046.905273	6024.732422
3045.580078	5927.299316
3044.255859	5975.226074
3042.930664	6026.908203
3041.605469	6067.250488
3040.280273	6062.307617
3038.955078	6104.513184
3037.628906	6084.480469
3036.302734	6132.319824
3034.976563	6146.214355
3033.649414	6048.924316
3032.322266	6121.234375
3030.995117	6125.704102
3029.667969	6165.954590
3028.339844	6076.265625
3027.012695	6154.161133
3025.684570	6128.504395
3024.355469	6213.886719
3023.027344	6299.235352
3021.698242	6282.970215
3020.369141	6178.314941
3019.039063	6205.327637
3017.708984	6256.770508
3016.378906	6358.944336
3015.048828	6368.991699
3013.718750	6386.550781
3012.387695	6295.145020
3011.056641	6316.467773
3009.725586	6270.178711
3008.393555	6422.921875
3007.062500	6513.660156
3005.730469	6480.496582
3004.397461	6550.547363
3003.065430	6569.917969
3001.732422	6651.178223
3000.399414	6644.266602
2999.065430	6822.978516
2997.732422	6992.247559
2996.398438	6908.429199
2995.064453	7055.129395
2993.729492	6976.951172
2992.395508	7052.400879
2991.060547	7376.901855
2989.724609	7527.141602
2988.389648	7415.233887
2987.053711	7662.735352
2985.717773	7956.924316
2984.381836	8024.610840
2983.044922	8086.659180
2981.708984	8309.524414
2980.372070	8502.384766
2979.034180	8455.871094
2977.697266	8687.879883
2976.359375	8880.554688
2975.021484	9144.154297
2973.682617	9246.996094
2972.344727	9443.184570
2971.005859	9628.091797
2969.666016	9805.458984
2968.327148	9900.625977
2966.987305	10146.922852
2965.647461	10309.158203
2964.307617	10478.791992
2962.967773	10555.100586
2961.626953	10676.134766
2960.286133	10800.849609
2958.944336	10849.088867
2957.603516	11212.280273
2956.261719	11107.622070
2954.919922	11263.826172
2953.577148	11267.231445
2952.235352	11266.910156
2950.892578	11171.629883
2949.549805	11525.026367
2948.206055	11390.645508
2946.863281	11494.506836
2945.519531	11646.699219
2944.174805	11465.868164
2942.831055	11432.029297
2941.486328	11664.098633
2940.141602	11487.085938
2938.796875	11620.542969
2937.451172	11519.796875
2936.105469	11485.977539
2934.759766	11385.295898
2933.414063	11299.511719
2932.067383	11312.174805
2930.720703	11308.123047
2929.374023	11075.763672
2928.027344	11090.317383
2926.679688	11140.118164
2925.332031	11047.056641
2923.984375	11004.108398
2922.635742	11241.186523
2921.287109	11090.683594
2919.938477	11032.920898
2918.589844	10852.863281
2917.240234	10852.609375
2915.890625	11050.580078
2914.541016	11089.182617
2913.191406	11133.325195
2911.840820	11060.806641
2910.490234	11151.214844
2909.139648	11041.704102
2907.789063	11115.426758
2906.437500	11207.620117
2905.085938	11279.430664
2903.734375	11401.144531
2902.381836	11508.018555
2901.029297	11611.153320
2899.676758	11684.675781
2898.324219	11817.301758
2896.970703	11946.179688
2895.617188	12137.811523
2894.263672	12113.291016
2892.910156	12131.247070
2891.555664	12206.424805
2890.201172	12420.003906
2888.846680	12399.134766
2887.491211	12278.642578
2886.135742	12196.933594
2884.780273	12118.945313
2883.424805	12195.877930
2882.068359	11913.280273
2880.712891	11861.195313
2879.355469	11600.885742
2877.999023	11523.085938
2876.641602	11226.098633
2875.284180	10942.119141
2873.926758	10776.102539
2872.569336	10774.004883
2871.210938	10400.082031
2869.852539	10168.012695
2868.494141	9913.953125
2867.134766	10053.675781
2865.775391	9617.646484
2864.416016	9516.471680
2863.056641	9319.729492
2861.696289	9362.032227
2860.335938	9172.748047
2858.975586	9020.287109
2857.614258	8994.647461
2856.253906	8722.887695
2854.892578	8557.747070
2853.530273	8482.636719
2852.168945	8447.941406
2850.806641	8470.155273
2849.444336	8409.785156
2848.082031	8433.832031
2846.718750	8157.046387
2845.355469	8094.937012
2843.992188	8078.690918
2842.627930	8097.281738
2841.264648	7989.397949
2839.900391	7989.672852
2838.535156	7821.391113
2837.170898	7788.726074
2835.805664	7761.567383
2834.440430	7761.884766
2833.075195	7630.391113
2831.708984	7724.081543
2830.342773	7695.125000
2828.976563	7642.394043
2827.609375	7593.342285
2826.243164	7575.400391
2824.875977	7334.380371
2823.507813	7407.906250
2822.140625	7492.370117
2820.772461	7361.155762
2819.404297	7403.570313
2818.035156	7332.708008
2816.666992	7269.178223
2815.297852	7344.454590
2813.928711	7343.020996
2812.558594	7179.130371
2811.189453	7283.579102
2809.819336	7267.559570
2808.448242	7163.980469
2807.078125	7264.721680
2805.707031	7163.006348
2804.335938	7136.082520
2802.963867	7065.419922
2801.592773	6987.494629
2800.220703	7040.794434
2798.848633	7055.814941
2797.475586	6999.793457
2796.102539	7136.828125
2794.729492	7124.509277
2793.356445	7043.020508
2791.982422	7034.364258
2790.609375	7100.316895
2789.234375	7086.193848
2787.860352	6961.120117
2786.485352	7076.149414
2785.110352	6942.034668
2783.735352	7051.568359
2782.360352	6975.670898
2780.984375	6976.124023
2779.608398	7054.700195
2778.231445	6947.965820
2776.855469	7026.515625
2775.478516	6945.248047
2774.101563	7087.305664
2772.723633	6980.646973
2771.346680	7033.722168
2769.968750	7023.273926
2768.589844	6891.293945
2767.211914	6899.013184
2765.833008	7001.019531
2764.454102	7043.159180
2763.075195	6893.150879
2761.695313	6942.543457
2760.315430	7006.411133
2758.935547	6941.637207
2757.554688	7012.723633
2756.174805	7103.700684
2754.793945	6955.665039
2753.412109	6957.923340
2752.031250	7106.767090
2750.649414	7204.890625
2749.267578	7018.960449
2747.884766	7033.863281
2746.502930	7059.609863
2745.120117	7132.353027
2743.736328	7232.180664
2742.353516	7100.642578
2740.969727	7014.327637
2739.585938	7041.857422
2738.202148	7049.508301
2736.817383	6871.156250
2735.432617	7003.414063
2734.047852	6946.083008
2732.662109	7043.982910
2731.277344	7049.819824
2729.891602	7030.396973
2728.504883	6911.778320
2727.119141	7033.050293
2725.732422	7060.519043
2724.345703	6855.436035
2722.958008	6854.091797
2721.571289	6919.418945
2720.183594	7002.735840
2718.794922	6914.903320
2717.407227	7001.789063
2716.018555	7079.638184
2714.629883	6984.640625
2713.241211	7073.260742
2711.851563	6893.726074
2710.461914	6944.547363
2709.072266	6955.775391
2707.681641	6884.272461
2706.291016	6958.438965
2704.900391	6824.043945
2703.509766	6959.301758
2702.119141	6939.965820
2700.727539	6825.415039
2699.334961	6913.888672
2697.943359	6833.510254
2696.550781	6948.880371
2695.158203	7033.686523
2693.765625	6870.766602
2692.372070	6986.060547
2690.979492	6923.686523
2689.584961	6864.923828
2688.191406	6903.031250
2686.796875	6910.640137
2685.402344	6968.443359
2684.007813	6977.828125
2682.613281	6983.625000
2681.217773	6890.875488
2679.822266	6864.442383
2678.425781	6992.044434
2677.030273	6965.601074
2675.633789	6978.553711
2674.237305	6923.483398
2672.839844	6932.859375
2671.442383	6992.330078
2670.044922	6940.866211
2668.647461	6839.343262
2667.249023	7018.604004
2665.850586	6997.557129
2664.452148	7005.118164
2663.053711	6898.299316
2661.654297	6857.633301
2660.254883	6945.604980
2658.855469	6938.879883
2657.455078	7005.371582
2656.054688	7003.992676
2654.654297	6965.128906
2653.252930	7067.268555
2651.852539	6844.622559
2650.451172	6921.769043
2649.048828	7038.124512
2647.647461	7093.803223
2646.245117	6876.674316
2644.842773	7021.489746
2643.439453	7009.414063
2642.037109	6893.994629
2640.633789	6938.955566
2639.229492	7128.172363
2637.826172	7002.111816
2636.421875	7043.463379
2635.017578	6814.222656
2633.613281	6969.498047
2632.208008	6996.594727
2630.802734	6806.636719
2629.397461	6947.591309
2627.991211	7040.474121
2626.584961	6971.522461
2625.178711	6993.257813
2623.772461	7018.538574
2622.365234	7008.270020
2620.958008	6976.686035
2619.550781	7000.177734
2618.142578	7123.109863
2616.735352	6912.190918
2615.326172	6901.951660
2613.917969	7015.955078
2612.508789	6893.905273
2611.099609	6998.994141
2609.690430	6901.828613
2608.281250	7006.873047
2606.871094	7078.187500
2605.460938	6986.380859
2604.049805	6993.864258
2602.639648	7038.556641
2601.228516	7090.318359
2599.817383	7085.375977
2598.405273	7080.435547
2596.993164	7011.753418
2595.581055	6898.840332
2594.168945	7056.772949
2592.755859	7092.541016
2591.342773	7096.448242
2589.929688	6995.988770
2588.516602	7038.820801
2587.102539	7037.430176
2585.688477	7126.200195
2584.273438	7084.140137
2582.859375	7245.318359
2581.444336	7121.977539
2580.028320	7198.294434
2578.613281	7191.573730
2577.197266	7146.008301
2575.781250	7061.622070
2574.365234	7044.340820
2572.948242	7131.183594
2571.531250	7046.849121
2570.114258	7167.172852
2568.696289	7156.937500
2567.278320	7084.989746
2565.860352	7025.411133
2564.442383	7217.909180
2563.023438	7142.466797
2561.604492	7209.769043
2560.185547	7129.072266
2558.766602	7055.451660
2557.346680	7115.686523
2555.926758	7385.399902
2554.505859	7200.879883
2553.084961	7125.542480
2551.665039	7236.739258
2550.243164	7231.788574
2548.822266	7355.230957
2547.400391	7373.118164
2545.978516	7278.479980
2544.555664	7264.734863
2543.133789	7337.106934
2541.710938	7210.904297
2540.287109	7388.659668
2538.864258	7299.378906
2537.440430	7348.857422
2536.016602	7389.537598
2534.591797	7347.702148
2533.167969	7418.200195
2531.743164	7409.712402
2530.317383	7373.159180
2528.892578	7206.830566
2527.466797	7240.473633
2526.041016	7323.193848
2524.614258	7384.845703
2523.187500	7385.134766
2521.760742	7329.353516
2520.333984	7369.944824
2518.906250	7314.187988
2517.479492	7302.231445
2516.050781	7391.824707
2514.623047	7332.594238
2513.194336	7446.646484
2511.765625	7497.662598
2510.336914	7490.927246
2508.907227	7531.418945
2507.477539	7479.212891
2506.047852	7350.099121
2504.617188	7364.373047
2503.186523	7415.342285
2501.755859	7300.295410
2500.325195	7518.965332
2498.893555	7362.023438
2497.461914	7660.922363
2496.030273	7449.890137
2494.597656	7469.358887
2493.166016	7527.214355
2491.732422	7384.383789
2490.299805	7517.248047
2488.866211	7524.476563
2487.432617	7432.302246
2485.999023	7647.021484
2484.564453	7513.022461
2483.130859	7454.017578
2481.695313	7468.219727
2480.260742	7440.604492
2478.825195	7613.304199
2477.389648	7425.458496
2475.954102	7566.752441
2474.517578	7570.471191
2473.081055	7473.245117
2471.644531	7583.123535
2470.207031	7618.149902
2468.770508	7493.142090
2467.332031	7655.119629
2465.894531	7681.416504
2464.456055	7622.524902
2463.017578	7692.266602
2461.579102	7657.722168
2460.140625	7558.912109
2458.701172	7670.310059
2457.261719	7552.433105
2455.821289	7740.181641
2454.380859	7641.432129
2452.940430	7766.607422
2451.500000	7737.299316
2450.058594	7687.184082
2448.617188	7661.371094
2447.175781	7798.581055
2445.734375	7686.063965
2444.291992	7700.136230
2442.849609	7800.858887
2441.407227	7577.508789
2439.963867	7719.793945
2438.520508	7742.506348
2437.077148	7813.699219
2435.632813	7734.229980
2434.188477	7734.421387
2432.744141	7824.609863
2431.299805	7814.399902
2429.854492	7843.984375
2428.409180	7887.394043
2426.963867	7749.204590
2425.517578	7785.699219
2424.071289	7804.892090
2422.625000	7888.024902
2421.177734	7803.510742
2419.730469	7782.952148
2418.283203	7898.856445
2416.835938	7804.027832
2415.387695	7823.191406
2413.939453	7828.537109
2412.491211	7877.028320
2411.041992	7796.082031
2409.593750	7856.635742
2408.143555	7886.117188
2406.693359	7908.688477
2405.244141	7955.388672
2403.794922	7922.772949
2402.343750	7964.280273
2400.892578	7993.708984
2399.441406	7983.500488
2397.990234	7926.789063
2396.539063	7959.650391
2395.085938	7944.288086
2393.634766	7887.617188
2392.181641	8032.335938
2390.728516	7868.982910
2389.275391	7860.531250
2387.822266	7924.324707
2386.369141	7816.120605
2384.914063	8031.201660
2383.460938	7919.580566
2382.005859	7997.059082
2380.550781	8050.449707
2379.095703	8083.202148
2377.640625	8047.234863
2376.183594	8131.493652
2374.728516	8068.058594
2373.271484	8061.297363
2371.814453	8088.864258
2370.357422	8104.407715
2368.900391	8192.000000
2367.443359	8138.905762
2365.986328	8149.284180
2364.527344	8128.795410
2363.068359	8118.600098
2361.611328	8096.410645
2360.152344	8261.006836
2358.693359	8084.608887
2357.232422	8168.635742
2355.773438	8089.939453
2354.312500	8156.809082
2352.851563	8168.873047
2351.392578	8194.623047
2349.931641	8093.738281
2348.468750	8234.116211
2347.007813	8249.574219
2345.546875	8145.316895
2344.083984	8246.274414
2342.621094	8283.942383
2341.158203	8104.538574
2339.695313	8287.462891
2338.232422	8270.428711
2336.769531	8258.525391
2335.304688	8318.351563
2333.839844	8154.484375
2332.375000	8255.275391
2330.910156	8187.061523
2329.445313	8139.350586
2327.980469	8265.672852
2326.515625	8344.184570
2325.048828	8361.273438
2323.582031	8141.359375
2322.115234	8228.371094
2320.648438	8247.174805
2319.181641	8254.042969
2317.714844	8358.014648
2316.246094	8284.802734
2314.779297	8346.151367
2313.310547	8339.372070
2311.841797	8232.160156
2310.373047	8300.290039
2308.904297	8274.804688
2307.433594	8288.457031
2305.964844	8278.291992
2304.494141	8359.959961
2303.023438	8441.594727
2301.552734	8315.811523
2300.082031	8227.467773
2298.611328	8484.096680
2297.138672	8356.679688
2295.667969	8424.643555
2294.195313	8383.895508
2292.722656	8380.516602
2291.250000	8326.212891
2289.777344	8590.996094
2288.302734	8312.692383
2286.830078	8438.259766
2285.355469	8377.202148
2283.880859	8487.443359
2282.408203	8409.445313
2280.931641	8484.038086
2279.457031	8526.399414
2277.982422	8495.882813
2276.505859	8411.166992
2275.029297	8434.884766
2273.554688	8553.422852
2272.078125	8541.547852
2270.599609	8507.670898
2269.123047	8367.186523
2267.646484	8577.012695
2266.167969	8480.553711
2264.689453	8612.468750
2263.210938	8539.715820
2261.732422	8539.691406
2260.253906	8504.167969
2258.775391	8510.910156
2257.294922	8502.441406
2255.814453	8581.821289
2254.333984	8554.761719
2252.853516	8495.627930
2251.373047	8666.128906
2249.892578	8588.427734
2248.412109	8625.516602
2246.929688	8598.473633
2245.447266	8566.379883
2243.964844	8699.586914
2242.482422	8579.797852
2241.000000	8632.022461
2239.517578	8535.892578
2238.033203	8763.372070
2236.548828	8673.993164
2235.066406	8788.484375
2233.582031	8660.398438
2232.095703	8720.960938
2230.611328	8587.887695
2229.126953	8692.203125
2227.640625	8818.353516
2226.154297	8759.372070
2224.667969	8772.749023
2223.181641	8769.301758
2221.695313	8713.727539
2220.208984	8863.281250
2218.720703	8806.028320
2217.234375	8900.044922
2215.746094	8832.725586
2214.257813	8830.947266
2212.769531	8881.233398
2211.279297	8750.148438
2209.791016	8738.313477
2208.300781	8978.255859
2206.812500	8818.701172
2205.322266	8826.991211
2203.832031	8882.247070
2202.341797	8898.905273
2200.849609	8726.078125
2199.359375	9089.789063
2197.867188	8910.288086
2196.375000	8908.492188
2194.882813	8936.854492
2193.390625	8981.956055
2191.898438	8929.902344
2190.404297	9000.102539
2188.912109	8932.998047
2187.417969	9051.707031
2185.923828	8957.843750
2184.429688	9002.882813
2182.935547	8927.466797
2181.439453	8985.872070
2179.945313	9052.615234
2178.449219	9090.910156
2176.953125	9005.505859
2175.458984	9075.544922
2173.960938	9163.932617
2172.464844	9010.078125
2170.968750	9205.325195
2169.470703	8994.752930
2167.972656	9011.300781
2166.474609	9091.264648
2164.976563	9031.024414
2163.478516	9024.196289
2161.980469	9152.480469
2160.480469	9082.256836
2158.982422	9092.094727
2157.482422	9091.924805
2155.982422	8998.420898
2154.482422	9134.910156
2152.980469	9148.059570
2151.480469	9081.250000
2149.978516	9171.008789
2148.476563	9219.105469
2146.974609	8997.506836
2145.472656	9020.653320
2143.970703	9150.286133
2142.468750	9228.291992
2140.964844	9058.431641
2139.462891	9134.760742
2137.958984	9235.998047
2136.455078	9280.674805
2134.949219	9039.474609
2133.445313	9157.284180
2131.941406	9253.449219
2130.435547	9336.287109
2128.929688	9140.105469
2127.423828	9325.870117
2125.917969	9211.106445
2124.412109	9342.012695
2122.906250	9220.653320
2121.398438	9313.348633
2119.890625	9354.587891
2118.382813	9296.313477
2116.875000	9319.300781
2115.367188	9405.267578
2113.859375	9100.083008
2112.349609	9282.161133
2110.841797	9359.798828
2109.332031	9346.309570
2107.822266	9347.729492
2106.312500	9392.193359
2104.800781	9261.180664
2103.291016	9413.213867
2101.779297	9401.378906
2100.269531	9285.331055
2098.757813	9486.882813
2097.246094	9458.502930
2095.732422	9440.054688
2094.220703	9271.197266
2092.707031	9452.754883
2091.195313	9292.223633
2089.681641	9311.815430
2088.167969	9460.221680
2086.654297	9392.254883
2085.138672	9563.695313
2083.625000	9472.625977
2082.109375	9432.750000
2080.593750	9551.280273
2079.078125	9503.155273
2077.562500	9600.182617
2076.046875	9509.195313
2074.531250	9490.780273
2073.013672	9429.519531
2071.496094	9556.142578
2069.978516	9569.031250
2068.460938	9430.370117
2066.943359	9668.903320
2065.425781	9721.277344
2063.906250	9585.960938
2062.386719	9618.579102
2060.869141	9565.614258
2059.349609	9560.382813
2057.828125	9569.956055
2056.308594	9607.482422
2054.789063	9600.599609
2053.267578	9544.401367
2051.746094	9660.798828
2050.224609	9655.550781
2048.703125	9684.804688
2047.181641	9538.292969
2045.658203	9602.044922
2044.136719	9657.559570
2042.613281	9670.372070
2041.089844	9714.361328
2039.566406	9599.166016
2038.042969	9757.990234
2036.517578	9639.551758
2034.994141	9776.982422
2033.468750	9848.775391
2031.943359	9745.141602
2030.417969	9815.271484
2028.892578	9701.854492
2027.367188	9703.158203
2025.839844	9779.803711
2024.314453	9789.278320
2022.787109	9777.463867
2021.259766	9813.124023
2019.732422	9768.578125
2018.203125	9719.140625
2016.675781	9815.316406
2015.146484	9960.519531
2013.619141	9767.171875
2012.089844	9703.058594
2010.560547	9911.942383
2009.029297	9777.552734
2007.500000	9932.416016
2005.968750	9811.145508
2004.439453	9867.944336
2002.908203	9735.303711
2001.376953	9868.824219
1999.843750	9798.261719
1998.312500	9856.646484
1996.781250	9831.797852
1995.248047	9994.549805
1993.714844	9672.858398
1992.181641	9775.244141
1990.648438	9903.671875
1989.115234	9777.781250
1987.580078	9824.676758
1986.044922	9935.091797
1984.511719	9977.048828
1982.976563	9763.300781
1981.441406	10108.126953
1979.904297	9891.182617
1978.369141	9843.593750
1976.832031	10001.057617
1975.294922	9870.492188
1973.759766	9930.290039
1972.220703	9942.902344
1970.683594	9836.815430
1969.146484	9844.563477
1967.607422	9988.829102
1966.068359	9933.168945
1964.531250	10001.000000
1962.992188	10156.513672
1961.451172	9948.203125
1959.912109	10063.072266
1958.371094	9914.924805
1956.832031	10055.719727
1955.291016	10103.968750
1953.750000	10027.282227
1952.208984	9775.456055
1950.666016	10052.378906
1949.125000	10032.492188
1947.582031	10010.993164
1946.039063	10049.464844
1944.496094	10196.479492
1942.953125	10118.258789
1941.410156	9902.402344
1939.865234	10269.579102
1938.322266	10066.730469
1936.777344	10079.241211
1935.232422	10221.211914
1933.687500	10024.966797
1932.142578	10073.065430
1930.595703	10265.084961
1929.050781	10010.738281
1927.503906	10262.506836
1925.957031	10166.663086
1924.410156	10011.065430
1922.863281	10096.264648
1921.314453	10048.971680
1919.767578	10132.512695
1918.218750	9962.515625
1916.669922	10192.943359
1915.121094	10142.438477
1913.572266	10012.883789
1912.021484	10099.570313
1910.472656	10195.898438
1908.921875	10205.101563
1907.371094	10251.384766
1905.820313	10073.576172
1904.269531	10287.483398
1902.718750	10121.018555
1901.166016	10360.603516
1899.615234	10137.815430
1898.062500	10319.324219
1896.509766	10183.578125
1894.957031	10273.248047
1893.402344	10367.708008
1891.849609	10294.787109
1890.294922	10305.548828
1888.740234	10155.465820
1887.185547	10262.735352
1885.630859	10265.457031
1884.076172	10361.406250
1882.519531	10553.742188
1880.964844	10325.027344
1879.408203	10173.513672
1877.851563	10373.797852
1876.294922	10403.788086
1874.736328	10398.445313
1873.179688	10413.970703
1871.621094	10429.489258
1870.064453	10417.724609
1868.505859	10292.072266
1866.947266	10201.752930
1865.386719	10568.459961
1863.828125	10529.420898
1862.267578	10639.458008
1860.708984	10422.543945
1859.148438	10373.944336
1857.587891	10453.509766
1856.025391	10486.598633
1854.464844	10631.754883
1852.902344	10423.066406
1851.341797	10395.319336
1849.779297	10364.383789
1848.216797	10533.441406
1846.652344	10649.644531
1845.089844	10671.447266
1843.525391	10510.968750
1841.962891	10582.344727
1840.398438	10389.985352
1838.833984	10509.291016
1837.267578	10567.840820
1835.703125	10528.934570
1834.136719	10568.291992
1832.572266	10542.173828
1831.005859	10587.896484
1829.439453	10635.195313
1827.873047	10583.546875
1826.304688	10649.969727
1824.738281	10690.844727
1823.169922	10481.349609
1821.601563	10825.154297
1820.033203	10607.747070
1818.464844	10736.244141
1816.896484	10499.823242
1815.326172	10674.484375
1813.755859	10603.806641
1812.185547	10620.735352
1810.615234	10658.351563
1809.044922	10608.410156
1807.474609	10568.037109
1805.902344	10643.823242
1804.332031	10570.053711
1802.759766	10647.397461
1801.187500	10522.775391
1799.615234	10739.989258
1798.041016	10659.901367
1796.468750	10525.817383
1794.894531	10537.950195
1793.320313	10770.863281
1791.746094	10713.065430
1790.171875	10674.342773
1788.597656	10667.383789
1787.021484	10814.373047
1785.445313	10824.841797
1783.871094	10768.674805
1782.294922	10707.771484
1780.716797	10677.023438
1779.140625	10788.976563
1777.564453	10775.659180
1775.986328	10702.124023
1774.408203	10921.746094
1772.830078	10792.764648
1771.251953	10625.825195
1769.673828	10759.816406
1768.093750	10816.175781
1766.513672	10883.592773
1764.935547	10716.768555
1763.355469	10678.169922
1761.773438	10881.611328
1760.193359	10857.226563
1758.613281	10764.860352
1757.031250	10833.780273
1755.449219	10915.316406
1753.867188	10856.177734
1752.285156	10740.186523
1750.701172	10949.634766
1749.119141	10874.731445
1747.535156	10791.963867
1745.951172	10884.454102
1744.367188	10951.652344
1742.783203	10980.952148
1741.199219	10838.278320
1739.613281	10948.030273
1738.029297	10922.117188
1736.443359	10883.600586
1734.857422	10960.169922
1733.271484	10968.940430
1731.683594	11042.308594
1730.097656	10988.042969
1728.509766	10795.196289
1726.921875	11016.575195
1725.333984	10962.345703
1723.746094	11023.043945
1722.158203	11126.207031
1720.568359	10942.968750
1718.978516	10948.574219
1717.390625	11124.033203
1715.800781	11079.279297
1714.208984	11086.422852
1712.619141	11202.015625
1711.027344	10970.269531
1709.437500	11002.567383
1707.845703	11144.807617
1706.253906	11195.900391
1704.662109	10987.896484
1703.068359	11070.395508
1701.476563	11176.402344
1699.882813	11039.143555
1698.289063	11046.273438
1696.695313	11160.060547
1695.101563	11206.367188
1693.505859	11218.160156
1691.912109	11060.652344
1690.316406	11128.889648
1688.720703	11230.003906
1687.125000	11193.215820
1685.529297	11250.417969
1683.933594	11232.430664
1682.335938	11205.056641
1680.738281	11241.870117
1679.140625	11256.757813
1677.542969	11374.905273
1675.945313	11194.218750
1674.347656	11237.257813
1672.748047	11416.316406
1671.148438	11426.458984
1669.548828	11213.085938
1667.949219	11310.776367
1666.349609	11331.869141
1664.748047	11459.172852
1663.148438	11427.125977
1661.546875	11309.215820
1659.945313	11470.786133
1658.343750	11607.316406
1656.742188	11466.033203
1655.138672	11476.138672
1653.537109	11484.678711
1651.933594	11310.757813
1650.330078	11303.736328
1648.726563	11346.598633
1647.121094	11456.458008
1645.517578	11310.731445
1643.912109	11247.630859
1642.306641	11477.369141
1640.701172	11330.169922
1639.095703	11606.500977
1637.490234	11412.637695
1635.884766	11441.395508
1634.277344	11460.804688
1632.669922	11419.538086
1631.062500	11431.166016
1629.455078	11399.250977
1627.845703	11468.397461
1626.238281	11599.686523
1624.628906	11449.652344
1623.019531	11618.177734
1621.410156	11413.833984
1619.800781	11659.944336
1618.191406	11610.943359
1616.580078	11534.019531
1614.968750	11634.059570
1613.359375	11583.541016
1611.746094	11534.593750
1610.134766	11549.259766
1608.523438	11646.108398
1606.910156	11442.134766
1605.298828	11569.965820
1603.685547	11589.259766
1602.070313	11699.961914
1600.457031	11706.826172
1598.843750	11648.635742
1597.228516	11604.405273
1595.613281	11776.937500
1593.998047	11782.228516
1592.382813	11623.479492
1590.767578	11740.197266
1589.152344	11515.005859
1587.535156	11701.291992
1585.917969	11717.414063
1584.300781	11577.390625
1582.683594	11721.814453
1581.066406	11739.464844
1579.447266	11716.938477
1577.828125	11887.500000
1576.210938	11885.027344
1574.591797	11850.130859
1572.970703	11623.833008
1571.351563	11774.206055
1569.730469	11794.900391
1568.111328	11903.520508
1566.490234	11870.195313
1564.869141	11964.875000
1563.248047	11934.632813
1561.625000	11950.644531
1560.003906	11849.526367
1558.380859	11808.539063
1556.757813	11873.860352
1555.134766	11883.708984
1553.511719	12018.277344
1551.886719	12023.471680
1550.263672	11959.400391
1548.638672	11923.053711
1547.013672	11966.725586
1545.388672	12034.990234
1543.761719	11978.656250
1542.136719	12036.125000
1540.509766	11950.604492
1538.882813	11891.247070
1537.255859	11885.695313
1535.628906	12042.992188
1534.001953	11912.996094
1532.373047	11898.226563
1530.746094	12090.732422
1529.117188	12094.351563
1527.488281	12073.413086
1525.859375	11969.625977
1524.228516	12229.452148
1522.599609	11999.909180
1520.968750	12052.608398
1519.337891	12065.424805
1517.707031	12145.676758
1516.076172	12083.376953
1514.443359	12189.636719
1512.810547	12236.110352
1511.179688	12153.918945
1509.546875	12148.319336
1507.914063	12233.041992
1506.279297	12207.530273
1504.646484	12198.860352
1503.011719	12239.150391
1501.376953	12213.650391
1499.742188	12279.916992
1498.107422	12263.591797
1496.472656	12277.844727
1494.835938	12204.978516
1493.201172	12393.425781
1491.564453	12345.006836
1489.927734	12521.125977
1488.289063	12445.211914
1486.652344	12589.174805
1485.013672	12672.021484
1483.376953	12612.908203
1481.738281	12649.941406
1480.099609	12786.110352
1478.458984	13047.280273
1476.820313	13097.919922
1475.179688	13215.614258
1473.539063	13377.458984
1471.898438	13452.375977
1470.257813	13379.481445
1468.617188	13460.458008
1466.974609	13372.361328
1465.333984	13255.372070
1463.691406	13473.323242
1462.048828	13418.758789
1460.406250	13307.916992
1458.761719	13270.142578
1457.119141	13332.766602
1455.474609	13250.902344
1453.830078	13053.527344
1452.185547	13113.114258
1450.539063	13032.865234
1448.894531	12964.802734
1447.248047	12981.835938
1445.603516	12954.817383
1443.957031	12958.178711
1442.308594	12849.197266
1440.662109	12857.129883
1439.015625	12950.037109
1437.367188	12920.015625
1435.718750	12883.938477
1434.070313	13017.724609
1432.421875	13028.642578
1430.771484	12945.570313
1429.123047	13127.755859
1427.472656	12987.117188
1425.822266	12987.424805
1424.171875	12934.719727
1422.521484	12988.037109
1420.869141	13047.385742
1419.218750	13055.246094
1417.566406	13155.415039
1415.914063	12993.789063
1414.261719	13118.129883
1412.607422	13225.782227
1410.955078	13085.410156
1409.300781	13143.134766
1407.646484	13128.286133
1405.992188	13013.708984
1404.337891	13228.532227
1402.683594	13234.819336
1401.027344	13191.266602
1399.371094	13182.458984
1397.714844	13203.843750
1396.058594	13214.655273
1394.402344	13270.727539
1392.744141	13289.060547
1391.087891	13268.170898
1389.429688	13197.527344
1387.771484	13122.389648
1386.113281	13276.393555
1384.453125	13258.535156
1382.794922	13240.682617
1381.134766	13231.875000
1379.474609	13275.782227
1377.814453	13294.073242
1376.154297	13155.792969
1374.492188	13256.878906
1372.832031	13326.322266
1371.169922	13276.882813
1369.507813	13379.381836
1367.845703	13384.087891
1366.181641	13279.035156
1364.519531	13429.569336
1362.855469	13522.929688
1361.191406	13401.382813
1359.527344	13367.017578
1357.863281	13584.990234
1356.199219	13413.951172
1354.533203	13432.147461
1352.867188	13561.408203
1351.201172	13411.489258
1349.535156	13329.148438
1347.869141	13303.842773
1346.201172	13440.516602
1344.535156	13457.179688
1342.867188	13484.329102
1341.199219	13526.454102
1339.531250	13531.098633
1337.861328	13684.056641
1336.193359	13546.370117
1334.523438	13510.572266
1332.853516	13661.938477
1331.183594	13528.832031
1329.511719	13605.300781
1327.841797	13843.331055
1326.169922	13807.503906
1324.500000	13638.581055
1322.828125	13770.285156
1321.154297	13732.998047
1319.482422	13933.379883
1317.808594	13833.310547
1316.136719	13745.233398
1314.462891	13988.801758
1312.789063	13930.596680
1311.113281	13850.018555
1309.439453	13884.417969
1307.763672	13968.053711
1306.087891	14072.542969
1304.412109	14035.262695
1302.736328	14012.912109
1301.060547	14039.781250
1299.382813	14232.126953
1297.707031	14258.935547
1296.029297	14147.137695
1294.351563	13962.377930
1292.671875	14270.766602
1290.994141	14188.820313
1289.314453	14141.155273
1287.636719	14172.410156
1285.957031	14373.327148
1284.275391	14120.296875
1282.595703	14361.307617
1280.914063	14377.612305
1279.234375	14523.289063
1277.552734	14298.686523
1275.871094	14527.560547
1274.189453	14534.895508
1272.505859	14426.328125
1270.822266	14485.673828
1269.140625	14683.121094
1267.457031	14677.048828
1265.771484	14592.292969
1264.087891	14676.783203
1262.404297	14568.318359
1260.718750	14669.096680
1259.033203	14665.996094
1257.347656	14685.140625
1255.662109	14735.415039
1253.974609	14640.388672
1252.287109	14552.813477
1250.601563	14881.657227
1248.914063	14537.769531
1247.224609	14752.426758
1245.537109	14682.666992
1243.849609	14800.965820
1242.160156	14691.257813
1240.470703	14714.788086
1238.781250	14642.132813
1237.091797	14649.389648
1235.400391	14782.355469
1233.708984	14644.667969
1232.019531	14672.613281
1230.328125	14838.003906
1228.634766	14734.376953
1226.943359	14704.664063
1225.250000	14831.535156
1223.558594	14758.985352
1221.865234	14721.901367
1220.171875	14866.399414
1218.476563	14666.962891
1216.783203	14876.333008
1215.087891	14789.093750
1213.392578	14783.010742
1211.697266	14785.776367
1210.001953	14776.746094
1208.306641	14873.844727
1206.609375	14998.900391
1204.912109	14776.193359
1203.214844	14921.837891
1201.517578	14842.092773
1199.820313	15056.862305
1198.121094	14809.301758
1196.423828	14940.093750
1194.724609	15036.986328
1193.025391	14960.239258
1191.326172	14901.173828
1189.625000	15053.889648
1187.923828	14999.238281
1186.224609	15028.394531
1184.523438	15039.901367
1182.822266	14977.938477
1181.119141	15043.802734
1179.417969	15200.694336
1177.714844	14915.543945
1176.011719	14993.120117
1174.308594	15292.290039
1172.605469	15130.562500
1170.900391	15144.955078
1169.197266	15134.405273
1167.492188	15110.661133
1165.787109	15298.054688
1164.080078	15265.488281
1162.375000	15235.865234
1160.667969	15267.794922
1158.962891	15232.323242
1157.255859	15240.803711
1155.548828	15218.529297
1153.839844	15333.878906
1152.132813	15310.128906
1150.423828	15469.309570
1148.714844	15381.164063
1147.005859	15410.074219
1145.296875	15351.225586
1143.585938	15457.622070
1141.876953	15618.058594
1140.166016	15506.585938
1138.455078	15548.585938
1136.744141	15467.851563
1135.033203	15744.992188
1133.320313	15795.672852
1131.607422	15761.653320
1129.894531	15845.878906
1128.181641	15989.899414
1126.468750	16094.464844
1124.753906	16363.819336
1123.041016	16175.119141
1121.326172	16278.117188
1119.611328	16534.136719
1117.896484	16411.105469
1116.179688	16525.640625
1114.464844	16594.964844
1112.748047	16524.429688
1111.031250	16525.281250
1109.314453	16620.763672
1107.595703	16598.300781
1105.878906	16584.578125
1104.160156	16467.556641
1102.441406	16528.052734
1100.722656	16582.707031
1099.003906	16602.437500
1097.283203	16561.103516
1095.562500	16836.632813
1093.843750	16724.060547
1092.123047	16713.232422
1090.400391	16635.591797
1088.679688	16980.572266
1086.957031	16647.373047
1085.236328	16847.044922
1083.513672	16811.523438
1081.789063	16834.056641
1080.066406	16889.943359
1078.341797	16757.259766
1076.619141	17104.593750
1074.894531	16887.833984
1073.169922	17023.375000
1071.443359	16996.558594
1069.718750	17210.250000
1067.992188	17235.546875
1066.265625	17493.988281
1064.539063	17546.722656
1062.812500	17419.933594
1061.085938	17505.945313
1059.357422	17259.121094
1057.628906	17524.509766
1055.900391	17402.167969
1054.171875	17379.654297
1052.443359	17394.736328
1050.712891	17513.880859
1048.982422	17367.074219
1047.251953	17411.042969
1045.521484	17353.876953
1043.791016	17491.697266
1042.058594	17409.992188
1040.328125	17511.650391
1038.595703	17444.404297
1036.863281	17358.429688
1035.128906	17221.998047
1033.396484	17271.681641
1031.662109	17110.810547
1029.927734	17290.248047
1028.193359	17022.777344
1026.458984	16824.591797
1024.724609	16855.572266
1022.988281	16886.537109
1021.251953	16988.056641
1019.515625	17138.486328
1017.779297	17082.996094
1016.042969	16892.242188
1014.304688	16928.916016
1012.568359	16972.767578
1010.830078	16928.863281
1009.089844	17014.396484
1007.351563	16997.814453
1005.613281	16959.677734
1003.873047	17046.583984
1002.132813	17028.566406
1000.392578	17070.886719
998.652344	17051.433594
996.910156	16930.042969
995.169922	17095.810547
993.427734	17030.433594
991.685547	17236.283203
989.941406	16942.798828
988.199219	17238.939453
986.455078	17144.902344
984.712891	17175.636719
982.968750	17286.626953
981.222656	17227.033203
979.478516	17134.507813
977.734375	17261.189453
975.988281	17237.439453
974.242188	17286.720703
972.496094	17254.382813
970.748047	17327.970703
969.001953	17384.353516
967.253906	17370.611328
965.505859	17188.095703
963.757813	17323.119141
962.009766	17342.277344
960.259766	17394.302734
958.511719	17249.091797
956.761719	17428.273438
955.011719	17393.107422
953.259766	17405.083984
951.509766	17419.910156
949.757813	17431.875000
948.007813	17466.667969
946.255859	17348.761719
944.501953	17526.220703
942.750000	17511.044922
940.996094	17842.400391
939.244141	17771.560547
937.490234	17709.300781
935.734375	17678.419922
933.980469	17744.437500
932.224609	17912.988281
930.470703	18115.646484
928.714844	18097.515625
926.958984	17993.974609
925.201172	18058.425781
923.445313	18191.148438
921.687500	17996.601563
919.929688	18153.458984
918.171875	18010.195313
916.414063	17955.140625
914.654297	18212.822266
912.894531	17914.732422
911.136719	18126.843750
909.375000	18093.115234
907.615234	17947.201172
905.855469	17862.406250
904.093750	18135.384766
902.332031	17999.488281
900.570313	18248.195313
898.808594	18188.939453
897.044922	17880.074219
895.283203	18035.048828
893.519531	18168.689453
891.755859	17847.267578
889.992188	18230.308594
888.226563	17975.601563
886.462891	18031.224609
884.697266	18269.519531
882.931641	18053.193359
881.166016	18172.464844
879.398438	18235.072266
877.632813	18321.705078
875.865234	18595.041016
874.097656	18533.044922
872.330078	18700.158203
870.562500	18686.230469
868.792969	18726.021484
867.023438	18895.808594
865.253906	18893.148438
863.484375	19158.878906
861.714844	19136.388672
859.943359	19023.541016
858.173828	19102.726563
856.402344	19207.283203
854.628906	19117.064453
852.857422	19111.531250
851.085938	19118.691406
849.312500	19386.726563
847.539063	19197.853516
845.765625	19251.503906
843.992188	19161.384766
842.216797	19113.574219
840.441406	18698.128906
838.667969	18791.267578
836.892578	18742.154297
835.115234	18631.121094
833.339844	18584.876953
831.562500	18901.685547
829.785156	18702.056641
828.007813	18735.994141
826.230469	18899.285156
824.451172	18905.044922
822.673828	18781.486328
820.894531	18944.656250
819.115234	19009.408203
817.335938	18828.310547
815.554688	18914.123047
813.775391	18904.417969
811.994141	18915.775391
810.212891	18625.378906
808.431641	18698.527344
806.648438	18594.880859
804.867188	18607.691406
803.083984	18418.572266
801.300781	18502.912109
799.515625	18611.041016
797.732422	18578.990234
795.947266	18581.976563
794.164063	18478.503906
792.378906	18744.791016
790.591797	18490.111328
788.806641	18549.103516
787.019531	18651.453125
785.234375	18616.632813
783.447266	18636.386719
781.658203	18561.023438
779.871094	18555.607422
778.082031	18552.988281
776.294922	18776.796875
774.505859	18584.082031
772.716797	18602.410156
770.925781	18705.935547
769.136719	18795.449219
767.345703	18507.951172
765.554688	18658.886719
763.763672	18640.888672
761.970703	18758.238281
760.179688	18809.974609
758.386719	18939.787109
756.593750	18720.949219
754.800781	18794.958984
753.005859	18704.470703
751.212891	18679.513672
749.417969	18671.285156
747.623047	18846.917969
745.828125	18898.533203
744.033203	18735.716797
742.236328	18652.312500
740.439453	18900.158203
738.642578	18798.662109
736.845703	18669.388672
735.048828	18808.587891
733.250000	18818.410156
731.451172	18865.763672
729.652344	18856.109375
727.853516	18800.603516
726.054688	18879.878906
724.253906	18800.777344
722.455078	18795.306641
720.654297	18818.994141
718.853516	18599.761719
717.050781	18730.333984
715.250000	18880.271484
713.447266	18679.197266
711.644531	18790.248047
709.841797	18809.738281
708.037109	18789.017578
706.234375	18879.177734
704.429688	18760.068359
702.625000	18941.626953
700.820313	18969.367188
699.013672	18871.082031
697.208984	18882.208984
695.402344	19100.949219
693.595703	18995.777344
691.789063	18889.267578
689.982422	19013.800781
688.173828	18930.837891
686.365234	18864.503906
684.556641	19029.044922
682.748047	18998.646484
680.939453	19196.246094
679.128906	19153.390625
677.318359	19052.544922
675.507813	19088.443359
673.697266	18975.228516
671.886719	19204.355469
670.074219	19260.892578
668.261719	18949.044922
666.449219	18881.472656
664.636719	18800.136719
662.824219	19073.166016
661.009766	19064.876953
659.195313	18807.152344
657.380859	18858.169922
655.566406	19056.556641
653.751953	18761.814453
651.935547	18760.480469
650.119141	18965.638672
648.302734	18745.425781
646.486328	18833.535156
644.669922	18870.701172
642.851563	18830.828125
641.033203	18845.976563
639.214844	18791.000000
637.396484	18663.197266
635.578125	18773.189453
633.757813	18703.146484
631.937500	18813.080078
630.117188	18715.591797
628.296875	18925.701172
626.474609	18627.810547
624.654297	18850.197266
622.832031	18593.615234
621.009766	18704.791016
619.185547	18778.886719
617.363281	18899.570313
615.539063	18604.810547
613.714844	18718.625000
611.890625	18765.240234
610.066406	18759.775391
608.242188	18562.548828
606.416016	18714.609375
604.589844	18636.591797
602.763672	18535.333984
600.937500	18491.599609
599.109375	18510.820313
597.281250	18591.589844
595.453125	18508.205078
593.625000	18323.673828
591.796875	18776.261719
589.966797	18763.958984
588.138672	18298.001953
586.308594	18713.408203
584.478516	18516.734375
582.646484	18519.515625
580.816406	18721.619141
578.984375	18638.359375
577.152344	18613.814453
575.320313	18435.107422
573.486328	18733.896484
571.654297	18521.144531
569.820313	18551.181641
567.986328	18605.738281
566.152344	18727.052734
564.316406	18663.001953
562.482422	18652.107422
560.646484	18401.511719
558.810547	18566.332031
556.974609	18450.634766
555.136719	18563.650391
553.300781	18367.716797
551.462891	18514.708984
549.625000	18551.460938
547.785156	18362.455078
545.947266	18275.500000
544.107422	18471.312500
542.267578	18282.445313
540.427734	18517.570313
538.587891	18152.183594
536.748047	18258.210938
534.906250	18334.322266
533.064453	18433.474609
531.222656	18060.277344
529.378906	18130.949219
527.537109	18113.408203
525.693359	18208.449219
523.849609	18064.789063
522.005859	17850.693359
520.162109	18028.406250
518.316406	18089.498047
516.470703	17967.662109
514.625000	18066.666016
512.779297	17959.781250
510.933594	17935.533203
509.085938	18092.681641
507.238281	17893.832031
505.390625	17834.431641
503.542969	18013.138672
501.695313	17855.007813
499.845703	18143.154297
497.996094	17918.818359
496.146484	18033.822266
494.296875	18124.453125
492.447266	18097.507813
490.595703	18057.066406
488.744141	18173.283203
486.892578	18107.189453
485.041016	18186.898438
483.187500	18138.371094
481.333984	17994.072266
479.480469	17793.181641
477.626953	17948.406250
475.773438	17920.193359
473.917969	17672.269531
472.064453	17746.552734
470.208984	17593.089844
468.351563	17636.371094
466.496094	17227.103516
464.638672	17374.126953
462.783203	17642.244141
460.925781	17334.185547
459.066406	17236.179688
457.208984	17248.533203
455.349609	17143.861328
453.490234	17263.806641
451.630859	17249.253906
449.771484	17120.453125
447.912109	17017.242188
446.050781	17092.767578
444.189453	17080.945313
442.328125	16803.220703
440.466797	17023.750000
438.603516	16773.005859
436.740234	16886.074219
434.876953	16903.826172
433.013672	16979.251953
431.150391	16838.710938
429.285156	16717.003906
427.419922	16887.599609
425.554688	16728.404297
423.689453	16852.021484
421.824219	16834.912109
419.957031	16903.531250
418.089844	16708.312500
416.222656	16881.357422
414.355469	16975.349609
412.488281	16705.298828
410.619141	16650.773438
408.750000	16534.740234
406.880859	16448.179688
405.011719	16526.113281
403.140625	16399.488281
401.269531	16509.470703
399.398438	16193.165039
397.527344	16173.562500
395.656250	16202.048828
393.783203	16145.063477
391.910156	16253.641602
390.037109	16111.246094
388.164063	16150.392578
386.291016	16049.437500
384.416016	15893.839844
382.541016	16115.698242
380.666016	15925.488281
378.791016	15676.711914
376.914063	15849.160156
375.039063	15668.458008
373.162109	15807.528320
371.285156	15590.955078
369.406250	15575.529297
367.529297	15562.770508
365.650391	15671.126953
363.771484	15352.315430
361.892578	15497.916992
360.011719	15485.182617
358.132813	15360.757813
356.251953	15306.845703
354.371094	15485.551758
352.490234	15350.575195
350.607422	15070.847656
348.724609	15092.751953
346.841797	15084.103516
344.958984	15182.997070
343.076172	14932.751953
341.193359	15105.948242
339.308594	15005.752930
337.423828	14883.051758
335.539063	14828.038086
333.652344	14783.655273
331.767578	14889.083008
329.880859	14704.221680
327.994141	14792.393555
326.107422	14688.441406
324.218750	14652.080078
322.330078	14548.202148
320.443359	14533.067383
318.552734	14431.907227
316.664063	14443.267578
314.775391	14483.727539
312.884766	14516.231445
310.994141	14528.884766
309.103516	14357.762695
307.210938	14431.246094
305.320313	14305.150391
303.427734	14271.593750
301.535156	14005.570313
299.642578	13945.680664
297.748047	13844.886719
295.853516	13777.136719
293.960938	13884.940430
292.064453	13852.834961
290.169922	13748.188477
288.275391	13787.343750
286.378906	13661.660156
284.482422	13753.545898
282.585938	13567.296875
280.687500	13522.121094
278.791016	13473.012695
276.892578	13363.338867
274.994141	13544.727539
273.095703	13378.473633
271.195313	13329.436523
269.294922	13243.575195
267.396484	13416.931641
265.494141	13115.369141
263.593750	13088.786133
261.691406	13131.897461
259.791016	12919.980469
257.888672	12973.621094
255.986328	12836.723633
254.082031	12946.841797
252.177734	12894.060547
250.275391	13009.368164
248.371094	12838.449219
246.464844	12801.473633
244.560547	12780.259766
242.654297	12579.330078
240.748047	12606.700195
238.841797	12501.620117
236.935547	12517.195313
235.027344	12423.975586
233.119141	12357.003906
231.210938	12457.754883
229.302734	12418.309570
227.392578	12406.381836
225.484375	12285.791992
223.574219	12069.703125
221.664063	12171.709961
219.751953	12006.766602
217.841797	12028.948242
215.929688	11916.418945
214.017578	11921.612305
212.105469	11896.737305
210.193359	11922.840820
208.279297	11832.644531
206.365234	11823.479492
204.451172	11873.087891
202.537109	11644.552734
200.621094	11702.009766
198.705078	11525.818359
196.789063	11484.106445
194.873047	11383.705078
192.957031	11458.122070
191.039063	11310.827148
189.123047	11400.870117
187.203125	11270.595703
185.285156	11236.808594
183.367188	11197.826172
181.447266	11102.849609
179.527344	11238.413086
177.607422	10975.516602
175.687500	11090.219727
173.765625	10936.787109
171.843750	11211.480469
169.921875	10878.578125
168.000000	10805.924805
166.078125	10781.411133
164.154297	10768.606445
162.230469	10541.367188
160.306641	10618.275391
158.382813	10631.495117
156.457031	10510.934570
154.531250	10524.170898
152.605469	10417.966797
150.679688	10280.660156
148.753906	10242.032227
146.826172	10394.126953
144.898438	10271.182617
142.970703	10167.744141
141.042969	10218.627930
139.113281	10183.941406
137.183594	10120.761719
135.253906	9955.256836
133.324219	10124.011719
131.394531	9827.784180
129.462891	9650.802734
127.531250	9718.544922
125.599609	9497.664063
123.667969	9432.143555
121.734375	9043.260742
119.802734	8939.071289
117.869141	8578.917969
115.935547	8230.558594
114.000000	8122.741699
112.066406	7651.888672
110.130859	7714.768555
108.195313	7700.127930
106.257813	7654.503418
104.322266	7510.785645
102.384766	7501.361328
100.447266	7309.997559
