#Wave		#Intensity
3501.405273	2680.262939
3500.167969	2750.955811
3498.929688	2701.971924
3497.691406	2620.701904
3496.453125	2717.103516
3495.213867	2694.390869
3493.975586	2744.330566
3492.736328	2699.428467
3491.497070	2771.536621
3490.256836	2668.160156
3489.017578	2788.639648
3487.777344	2737.714600
3486.537109	2694.870850
3485.296875	2785.048340
3484.055664	2661.617676
3482.814453	2661.116211
3481.573242	2662.628662
3480.332031	2756.771240
3479.089844	2728.064941
3477.848633	2717.485840
3476.606445	2670.684326
3475.363281	2698.351563
3474.121094	2818.551758
3472.877930	2677.219727
3471.634766	2706.880859
3470.391602	2700.338379
3469.147461	2623.437744
3467.904297	2667.161133
3466.660156	2582.257324
3465.416016	2828.896973
3464.170898	2729.933105
3462.926758	2695.275146
3461.681641	2658.622314
3460.436523	2680.204590
3459.190430	2641.560791
3457.945313	2695.248291
3456.699219	3880.585693
3455.453125	4628.139160
3454.206055	5020.393066
3452.959961	5400.465820
3451.712891	6149.313965
3450.465820	5600.893066
3449.218750	5267.132324
3447.970703	5921.399414
3446.722656	4357.567383
3445.474609	4070.301270
3444.226563	4155.649902
3442.978516	4967.816895
3441.729492	9535.366211
3440.480469	4177.314453
3439.231445	2713.640869
3437.981445	2637.096680
3436.731445	2698.612549
3435.481445	2644.100586
3434.231445	2747.585449
3432.981445	2649.099609
3431.730469	2586.631592
3430.479492	2628.112793
3429.228516	2643.601563
3427.977539	2619.128174
3426.725586	2604.651123
3425.473633	2632.117432
3424.221680	2585.696289
3422.969727	2617.148193
3421.716797	2656.571777
3420.463867	2644.096436
3419.210938	2681.504395
3417.958008	2591.231934
3416.704102	2610.686035
3415.450195	2542.395020
3414.196289	2623.654053
3412.942383	2617.177979
3411.687500	2618.675781
3410.433594	2630.135498
3409.178711	2649.559570
3407.922852	2688.893555
3406.667969	2636.608398
3405.412109	2502.711182
3404.156250	2663.479736
3402.900391	2573.413574
3401.643555	2503.280518
3400.386719	2530.659912
3399.129883	2558.028809
3397.873047	2541.634277
3396.616211	2561.037109
3395.358398	2554.588135
3394.100586	2585.906494
3392.842773	2557.595215
3391.583984	2578.966553
3390.326172	2514.910156
3389.067383	2514.433838
3387.808594	2464.313965
3386.548828	2471.788574
3385.289063	2566.600098
3384.030273	2478.790771
3382.769531	2662.855713
3381.509766	2555.222412
3380.249023	2493.250000
3378.988281	2562.186523
3377.727539	2524.028809
3376.466797	2529.497559
3375.205078	2443.792725
3373.943359	2486.925049
3372.681641	2434.941406
3371.419922	2460.230957
3370.157227	2432.037842
3368.894531	2395.934570
3367.631836	2470.710449
3366.369141	2466.283203
3365.105469	2422.277832
3363.842773	2508.877197
3362.578125	2502.466797
3361.314453	2579.128662
3360.050781	2398.688232
3358.786133	2433.821289
3357.521484	2401.731689
3356.255859	2403.252441
3354.991211	2499.619629
3353.725586	2520.877197
3352.459961	2451.265625
3351.194336	2452.775146
3349.927734	2434.539307
3348.661133	2515.015869
3347.394531	2459.273926
3346.127930	2413.419678
3344.860352	2478.070068
3343.593750	2434.202148
3342.326172	2392.322998
3341.057617	2425.390381
3339.790039	2348.041992
3338.521484	2442.209473
3337.252930	2390.506348
3335.984375	2399.904297
3334.714844	2409.298340
3333.446289	2477.777344
3332.176758	2412.321533
3330.906250	2480.773682
3329.636719	2354.318848
3328.366211	2414.883301
3327.095703	2469.521240
3325.825195	2425.769775
3324.554688	2454.813721
3323.283203	2373.715576
3322.011719	2363.433105
3320.740234	2355.120361
3319.467773	2419.534424
3318.195313	2316.887695
3316.922852	2404.861328
3315.650391	2496.729980
3314.377930	2417.694824
3313.104492	2399.562500
3311.831055	2387.326660
3310.557617	2500.719971
3309.283203	2411.931396
3308.009766	2372.229736
3306.735352	2403.166748
3305.460938	2455.667236
3304.185547	2451.278076
3302.911133	2417.480713
3301.635742	2369.974121
3300.359375	2363.643311
3299.083984	2388.667480
3297.807617	2421.518555
3296.531250	2442.604248
3295.254883	2402.971191
3293.978516	2367.269043
3292.701172	2470.574707
3291.423828	2387.898193
3290.146484	2418.754150
3288.869141	2398.728271
3287.590820	2386.534424
3286.312500	2343.052246
3285.034180	2416.912598
3283.754883	2314.789307
3282.476563	2423.810791
3281.197266	2458.526611
3279.917969	2356.453369
3278.637695	2383.354492
3277.357422	2349.696045
3276.078125	2362.918213
3274.796875	2440.566162
3273.516602	2360.065674
3272.235352	2322.533447
3270.954102	2372.825684
3269.672852	2350.912842
3268.391602	2436.290771
3267.109375	2387.070801
3265.827148	2421.713135
3264.544922	2423.200928
3263.262695	2465.619385
3261.979492	2322.891602
3260.696289	2390.641357
3259.413086	2374.601563
3258.128906	2385.834473
3256.845703	2348.381592
3255.561523	2423.862061
3254.277344	2425.346191
3252.992188	2438.506348
3251.707031	2387.451416
3250.422852	2433.685303
3249.136719	2370.980469
3247.851563	2386.085205
3246.565430	2478.955322
3245.279297	2408.501465
3243.993164	2495.500977
3242.707031	2357.059814
3241.419922	2308.040039
3240.132813	2330.908691
3238.845703	2369.304688
3237.557617	2430.986328
3236.270508	2446.052734
3234.982422	2305.837891
3233.694336	2390.782715
3232.405273	2372.864258
3231.116211	2349.133301
3229.827148	2395.231445
3228.538086	2340.479492
3227.249023	2276.054932
3225.958984	2293.065186
3224.668945	2335.262695
3223.378906	2389.069336
3222.087891	2313.060791
3220.797852	2434.641357
3219.506836	2395.446289
3218.215820	2375.627197
3216.923828	2319.036133
3215.631836	2343.752930
3214.339844	2308.474609
3213.047852	2350.595703
3211.755859	2305.657959
3210.462891	2370.969971
3209.169922	2349.247803
3207.876953	2325.600586
3206.583008	2336.752686
3205.289063	2373.021729
3203.995117	2301.081787
3202.701172	2401.089600
3201.407227	2248.056152
3200.112305	2338.380615
3198.817383	2303.182861
3197.521484	2325.904785
3196.226563	2311.950928
3194.930664	2404.123291
3193.634766	2384.372070
3192.338867	2306.766602
3191.041992	2261.972656
3189.745117	2302.027588
3188.448242	2295.804199
3187.151367	2328.128174
3185.854492	2289.144531
3184.556641	2323.383789
3183.258789	2305.603516
3181.959961	2316.716797
3180.662109	2402.916748
3179.363281	2313.904541
3178.064453	2405.845947
3176.764648	2336.110107
3175.465820	2349.130127
3174.166016	2277.508057
3172.866211	2298.227051
3171.565430	2359.317383
3170.265625	2391.547363
3168.964844	2296.906250
3167.664063	2429.065430
3166.362305	2261.441650
3165.061523	2334.006104
3163.759766	2350.844238
3162.458008	2379.197510
3161.155273	2324.984619
3159.853516	2293.826660
3158.550781	2375.910400
3157.248047	2381.211426
3155.944336	2317.447021
3154.640625	2334.265137
3153.337891	2241.768799
3152.033203	2319.948730
3150.729492	2480.527344
3149.424805	2336.308105
3148.120117	2297.535889
3146.815430	2419.708984
3145.509766	2352.203125
3144.205078	2340.261230
3142.899414	2311.091064
3141.592773	2283.846436
3140.287109	2358.054443
3138.980469	2395.874756
3137.673828	2359.062744
3136.367188	2272.529297
3135.059570	2310.343994
3133.752930	2239.150146
3132.445313	2380.193604
3131.136719	2268.873535
3129.829102	2266.526855
3128.520508	2353.983887
3127.211914	2273.297852
3125.902344	2349.260010
3124.593750	2388.910400
3123.284180	2294.899170
3121.974609	2323.091309
3120.664063	2334.096191
3119.354492	2322.198975
3118.043945	2197.747803
3116.733398	2348.010254
3115.421875	2376.164795
3114.111328	2274.654785
3112.799805	2386.689453
3111.488281	2374.795166
3110.175781	2366.716309
3108.864258	2396.744629
3107.551758	2291.518066
3106.238281	2340.593750
3104.925781	2342.047852
3103.612305	2339.693848
3102.298828	2377.311523
3100.985352	2319.764160
3099.671875	2325.025879
3098.357422	2351.210693
3097.042969	2369.777588
3095.727539	2413.057129
3094.413086	2389.779053
3093.097656	2391.219971
3091.782227	2324.244385
3090.466797	2365.599121
3089.150391	2260.659668
3087.833984	2338.097900
3086.517578	2339.546875
3085.201172	2418.838623
3083.883789	2473.422363
3082.566406	2360.971191
3081.249023	2343.438965
3079.931641	2388.519531
3078.613281	2408.924561
3077.294922	2342.085693
3075.976563	2409.893066
3074.658203	2339.288330
3073.338867	2376.744385
3072.019531	2376.286621
3070.700195	2358.777588
3069.379883	2348.852051
3068.060547	2363.550781
3066.740234	2402.859131
3065.418945	2368.319580
3064.098633	2456.823730
3062.777344	2444.995850
3061.456055	2395.331543
3060.134766	2410.003418
3058.812500	2479.517822
3057.491211	2429.875244
3056.167969	2359.455078
3054.845703	2485.645264
3053.523438	2460.597900
3052.200195	2378.875244
3050.876953	2450.203613
3049.552734	2459.175049
3048.229492	2564.451416
3046.905273	2448.786621
3045.580078	2438.875977
3044.255859	2406.321289
3042.930664	2409.631104
3041.605469	2473.310303
3040.280273	2504.898926
3038.955078	2538.361084
3037.628906	2573.695557
3036.302734	2490.253418
3034.976563	2631.130127
3033.649414	2538.286865
3032.322266	2522.724854
3030.995117	2635.258301
3029.667969	2644.166260
3028.339844	2639.889893
3027.012695	2699.623047
3025.684570	2806.388184
3024.355469	2766.327393
3023.027344	2767.674805
3021.698242	2776.546143
3020.369141	2858.763672
3019.039063	2924.025635
3017.708984	2974.221924
3016.378906	3043.195557
3015.048828	2991.866211
3013.718750	3004.440918
3012.387695	3058.339600
3011.056641	3104.704346
3009.725586	3104.104492
3008.393555	3077.219727
3007.062500	3012.802490
3005.730469	3107.935791
3004.397461	3096.076660
3003.065430	3125.494873
3001.732422	2995.468506
3000.399414	2918.001465
2999.065430	3016.810059
2997.732422	2890.628906
2996.398438	2906.938232
2995.064453	2837.042725
2993.729492	2969.513428
2992.395508	2877.154785
2991.060547	2893.453613
2989.724609	2909.745605
2988.389648	2869.869629
2987.053711	2843.110596
2985.717773	2879.987305
2984.381836	2907.494873
2983.044922	2905.061768
2981.708984	2977.439453
2980.372070	3014.260986
2979.034180	3047.329102
2977.697266	3257.955078
2976.359375	3178.834717
2975.021484	3077.323486
2973.682617	3138.374512
2972.344727	3188.195313
2971.005859	3245.466309
2969.666016	3235.502930
2968.327148	3272.208984
2966.987305	3243.581299
2965.647461	3211.232666
2964.307617	3173.299805
2962.967773	3213.719238
2961.626953	3310.067871
2960.286133	3098.741943
2958.944336	3168.977783
2957.603516	3160.908691
2956.261719	3214.334473
2954.919922	3303.136719
2953.577148	3377.002930
2952.235352	3309.305664
2950.892578	3466.929199
2949.549805	3525.827637
2948.206055	3610.760254
2946.863281	3904.075439
2945.519531	3880.992676
2944.174805	4151.819824
2942.831055	4244.003418
2941.486328	4674.564453
2940.141602	4898.603516
2938.796875	5334.446289
2937.451172	5916.927734
2936.105469	6400.710449
2934.759766	7081.211914
2933.414063	7768.878418
2932.067383	8341.150391
2930.720703	9022.735352
2929.374023	9581.547852
2928.027344	10062.199219
2926.679688	10141.885742
2925.332031	10164.034180
2923.984375	9993.281250
2922.635742	9357.147461
2921.287109	8812.106445
2919.938477	7994.789551
2918.589844	7233.389160
2917.240234	6731.693848
2915.890625	6243.160645
2914.541016	5695.546387
2913.191406	5225.922363
2911.840820	4871.272461
2910.490234	4529.718262
2909.139648	4332.656738
2907.789063	4054.253418
2906.437500	3842.559814
2905.085938	3801.119873
2903.734375	3519.282715
2902.381836	3533.390625
2901.029297	3345.993896
2899.676758	3304.682129
2898.324219	3213.492920
2896.970703	3211.020752
2895.617188	3175.300293
2894.263672	2978.920166
2892.910156	3100.207520
2891.555664	2944.532227
2890.201172	2883.050293
2888.846680	2928.624268
2887.491211	2898.534424
2886.135742	2800.203369
2884.780273	2801.503174
2883.424805	2795.426514
2882.068359	2844.659668
2880.712891	2838.576660
2879.355469	2755.095215
2877.999023	2774.826904
2876.641602	2722.706543
2875.284180	2714.809570
2873.926758	2706.915527
2872.569336	2654.838623
2871.210938	2565.967285
2869.852539	2740.302490
2868.494141	2642.248779
2867.134766	2722.678955
2865.775391	2604.434326
2864.416016	2684.840332
2863.056641	2687.994629
2861.696289	2726.073730
2860.335938	2727.380859
2858.975586	2609.249756
2857.614258	2610.578613
2856.253906	2729.461182
2854.892578	2649.963379
2853.530273	2719.217773
2852.168945	2656.273682
2850.806641	2683.286621
2849.444336	2666.248779
2848.082031	2649.217529
2846.718750	2698.226807
2845.355469	2716.040283
2843.992188	2658.670410
2842.627930	2632.487305
2841.264648	2740.112305
2839.900391	2580.151367
2838.535156	2662.094482
2837.170898	2604.790283
2835.805664	2527.362549
2834.440430	2594.619141
2833.075195	2445.825928
2831.708984	2503.920166
2830.342773	2529.051758
2828.976563	2504.773193
2827.609375	2528.065186
2826.243164	2401.376465
2824.875977	2441.136475
2823.507813	2416.893311
2822.140625	2405.454590
2820.772461	2410.467773
2819.404297	2331.430420
2818.035156	2285.305908
2816.666992	2315.909180
2815.297852	2383.021729
2813.928711	2395.336426
2812.558594	2281.696777
2811.189453	2357.901367
2809.819336	2331.895996
2808.448242	2293.130615
2807.078125	2323.689697
2805.707031	2330.530029
2804.335938	2310.019531
2802.963867	2402.534424
2801.592773	2287.247314
2800.220703	2319.599121
2798.848633	2341.007568
2797.475586	2284.085449
2796.102539	2316.418701
2794.729492	2239.495605
2793.356445	2248.159912
2791.982422	2198.580078
2790.609375	2301.871094
2789.234375	2301.421143
2787.860352	2350.083008
2786.485352	2253.238037
2785.110352	2252.797607
2783.735352	2235.996094
2782.360352	2262.822021
2780.984375	2251.476318
2779.608398	2181.997070
2778.231445	2237.880615
2776.855469	2279.213379
2775.478516	2318.714111
2774.101563	2231.121582
2772.723633	2317.807129
2771.346680	2270.171875
2769.968750	2247.955811
2768.589844	2238.446045
2767.211914	2190.853760
2765.833008	2223.063965
2764.454102	2255.261230
2763.075195	2253.007324
2761.695313	2261.627441
2760.315430	2386.202148
2758.935547	2197.339844
2757.554688	2291.088623
2756.174805	2270.721436
2754.793945	2275.708252
2753.412109	2211.909912
2752.031250	2367.112793
2750.649414	2297.893311
2749.267578	2355.331543
2747.884766	2298.801758
2746.502930	2269.418701
2745.120117	2247.278809
2743.736328	2264.914307
2742.353516	2271.699707
2740.969727	2249.571777
2739.585938	2258.163574
2738.202148	2302.875488
2736.817383	2342.152344
2735.432617	2356.136963
2734.047852	2341.234375
2732.662109	2290.241943
2731.277344	2370.991455
2729.891602	2354.290039
2728.504883	2272.661865
2727.119141	2310.086426
2725.732422	2269.967773
2724.345703	2336.220215
2722.958008	2339.366455
2721.571289	2396.569580
2720.183594	2311.425293
2718.794922	2301.965576
2717.407227	2279.903564
2716.018555	2338.873291
2714.629883	2381.618408
2713.241211	2364.952881
2711.851563	2341.095703
2710.461914	2351.430908
2709.072266	2385.145752
2707.681641	2364.895020
2706.291016	2380.613281
2704.900391	2414.302246
2703.509766	2341.934570
2702.119141	2388.196289
2700.727539	2337.421631
2699.334961	2453.720947
2697.943359	2379.605957
2696.550781	2481.486572
2695.158203	2360.719238
2693.765625	2295.640137
2692.372070	2390.298584
2690.979492	2391.623291
2689.584961	2348.101807
2688.191406	2335.086182
2686.796875	2361.523926
2685.402344	2357.474365
2684.007813	2213.618652
2682.613281	2347.587646
2681.217773	2275.458252
2679.822266	2341.290771
2678.425781	2287.100586
2677.030273	2345.742188
2675.633789	2332.749023
2674.237305	2328.710449
2672.839844	2321.094238
2671.442383	2370.736328
2670.044922	2320.181152
2668.647461	2207.047363
2667.249023	2329.997803
2665.850586	2258.026367
2664.452148	2273.669434
2663.053711	2260.712158
2661.654297	2263.840820
2660.254883	2374.153564
2658.855469	2359.397705
2657.455078	2339.290527
2656.054688	2235.278809
2654.654297	2222.343750
2653.252930	2270.092285
2651.852539	2271.429688
2650.451172	2228.167480
2649.048828	2373.984863
2647.647461	2248.689209
2646.245117	2235.766113
2644.842773	2140.850342
2643.439453	2311.520508
2642.037109	2293.246582
2640.633789	2216.190186
2639.229492	2283.437500
2637.826172	2227.782715
2636.421875	2334.170898
2635.017578	2381.773682
2633.613281	2343.929688
2632.208008	2243.821533
2630.802734	2282.518311
2629.397461	2257.166748
2627.991211	2224.711670
2626.584961	2258.054932
2625.178711	2309.161621
2623.772461	2162.968262
2622.365234	2256.719727
2620.958008	2286.476807
2619.550781	2282.473633
2618.142578	2282.023438
2616.735352	2238.960449
2615.326172	2220.766846
2613.917969	2348.117432
2612.508789	2358.301270
2611.099609	2327.675537
2609.690430	2197.729492
2608.281250	2383.507324
2606.871094	2264.239746
2605.460938	2324.066406
2604.049805	2158.775146
2602.639648	2262.899658
2601.228516	2248.279297
2599.817383	2215.951416
2598.405273	2258.017822
2596.993164	2243.406982
2595.581055	2288.991699
2594.168945	2286.769775
2592.755859	2312.862061
2591.342773	2314.174561
2589.929688	2334.944336
2588.516602	2286.732422
2587.102539	2180.188721
2585.688477	2280.525635
2584.273438	2366.682617
2582.859375	2277.857422
2581.444336	2233.237305
2580.028320	2266.358643
2578.613281	2341.853271
2577.197266	2288.417725
2575.781250	2309.150391
2574.365234	2312.224121
2572.948242	2244.708252
2571.531250	2270.729736
2570.114258	2233.236816
2568.696289	2202.812988
2567.278320	2267.619873
2565.860352	2297.141846
2564.442383	2280.824219
2563.023438	2264.512695
2561.604492	2253.493164
2560.185547	2379.880615
2558.766602	2379.409668
2557.346680	2206.373535
2555.926758	2299.244873
2554.505859	2288.228760
2553.084961	2185.706055
2551.665039	2355.943115
2550.243164	2336.126465
2548.822266	2216.066650
2547.400391	2254.313721
2545.978516	2209.915283
2544.555664	2329.004150
2543.133789	2265.276855
2541.710938	2340.381348
2540.287109	2357.484863
2538.864258	2269.200684
2537.440430	2430.303223
2536.016602	2205.098389
2534.591797	2304.714111
2533.167969	2320.052246
2531.743164	2272.218262
2530.317383	2206.860352
2528.892578	2252.024902
2527.466797	2346.271240
2526.041016	2284.443604
2524.614258	2305.025391
2523.187500	2281.785889
2521.760742	2358.429443
2520.333984	2321.173584
2518.906250	2318.961914
2517.479492	2265.968262
2516.050781	2312.790283
2514.623047	2420.858887
2513.194336	2352.125244
2511.765625	2309.665039
2510.336914	2270.720215
2508.907227	2275.517090
2507.477539	2296.050049
2506.047852	2307.833252
2504.617188	2268.919189
2503.186523	2209.048340
2501.755859	2302.965332
2500.325195	2368.893311
2498.893555	2347.463623
2497.461914	2388.908691
2496.030273	2370.975098
2494.597656	2316.391357
2493.166016	2324.657959
2491.732422	2292.788330
2490.299805	2273.143311
2488.866211	2328.506348
2487.432617	2314.093262
2485.999023	2325.838135
2484.564453	2307.944824
2483.130859	2304.000732
2481.695313	2272.178711
2480.260742	2336.186035
2478.825195	2389.717041
2477.389648	2232.513672
2475.954102	2259.927490
2474.517578	2311.700439
2473.081055	2353.010742
2471.644531	2309.041992
2470.207031	2327.719727
2468.770508	2356.826172
2467.332031	3006.747314
2465.894531	3901.561523
2464.456055	5842.487305
2463.017578	3256.960693
2461.579102	2340.583740
2460.140625	2376.601074
2458.701172	2445.605957
2457.261719	2339.187744
2455.821289	2232.811523
2454.380859	2298.331543
2452.940430	2389.858887
2451.500000	2366.825684
2450.058594	2309.104492
2448.617188	2284.361816
2447.175781	2332.464111
2445.734375	2305.992676
2444.291992	2348.870850
2442.849609	2320.673096
2441.407227	2360.065674
2439.963867	2307.622314
2438.520508	2364.322510
2437.077148	2317.094238
2435.632813	2384.158203
2434.188477	2310.978516
2432.744141	2333.017822
2431.299805	2370.621582
2429.854492	2254.237305
2428.409180	2326.435303
2426.963867	2355.370850
2425.517578	2304.760498
2424.071289	2316.402100
2422.625000	2312.484131
2421.177734	2303.383545
2419.730469	2334.021729
2418.283203	2359.465820
2416.835938	2322.729980
2415.387695	2356.799072
2413.939453	2244.123047
2412.491211	2354.133789
2411.041992	2320.878906
2409.593750	2365.271729
2408.143555	2356.175781
2406.693359	2293.623047
2405.244141	2360.408936
2403.794922	2334.080566
2402.343750	2385.320068
2400.892578	2346.935059
2399.441406	2308.565186
2397.990234	2297.769775
2396.539063	2398.916748
2395.085938	2386.385498
2393.634766	2346.316406
2392.181641	2340.685059
2390.728516	2364.308350
2389.275391	2367.277344
2387.822266	2322.083496
2386.369141	2266.588867
2384.914063	2341.789063
2383.460938	2411.802002
2382.005859	2375.228027
2380.550781	2388.500488
2379.095703	2312.431396
2377.640625	2332.581543
2376.183594	2246.250000
2374.728516	2357.404785
2373.271484	2392.983154
2371.814453	2296.393066
2370.357422	2355.992432
2368.900391	2382.971436
2367.443359	2334.468018
2365.986328	2370.014893
2364.527344	2362.683105
2363.068359	2334.783203
2361.611328	2270.902588
2360.152344	2373.261719
2358.693359	2376.213623
2357.232422	2386.015869
2355.773438	2361.563721
2354.312500	2285.755615
2352.851563	2394.856201
2351.392578	2375.550781
2349.931641	2327.163574
2348.468750	2379.733154
2347.007813	2377.546875
2345.546875	2358.260010
2344.083984	2279.138428
2342.621094	2328.256104
2341.158203	2326.081299
2339.695313	2349.538330
2338.232422	2372.986084
2336.769531	2382.759766
2335.304688	2228.587158
2333.839844	2366.439697
2332.375000	2348.895508
2330.910156	2375.732666
2329.445313	2436.686035
2327.980469	2313.364746
2326.515625	2428.887939
2325.048828	2285.153076
2323.582031	2446.670166
2322.115234	2354.128906
2320.648438	2432.055908
2319.181641	2332.738281
2317.714844	2298.198486
2316.246094	2364.166504
2314.779297	2317.713135
2313.310547	2368.327148
2311.841797	2420.622803
2310.373047	2379.291748
2308.904297	2404.338623
2307.433594	2342.612061
2305.964844	2376.160645
2304.494141	2348.475342
2303.023438	2383.709229
2301.552734	2369.632324
2300.082031	2341.964600
2298.611328	2344.893555
2297.138672	2407.281006
2295.667969	2398.305664
2294.195313	2341.784912
2292.722656	2402.437256
2291.250000	2376.492920
2289.777344	2325.101807
2288.302734	2336.512939
2286.830078	2347.919434
2285.355469	2398.332520
2283.880859	2284.233154
2282.408203	2438.061035
2280.931641	2373.157471
2279.457031	2425.218994
2277.982422	2395.927002
2276.505859	2273.471436
2275.029297	2413.596436
2273.554688	2330.134766
2272.078125	2424.479004
2270.599609	2319.042725
2269.123047	2381.195557
2267.646484	2411.174316
2266.167969	2327.796143
2264.689453	2401.749023
2263.210938	2380.974121
2261.732422	2353.444824
2260.253906	2369.875488
2258.775391	2286.588867
2257.294922	2483.821289
2255.814453	2388.719482
2254.333984	2244.674805
2252.853516	2401.268555
2251.373047	2280.915527
2249.892578	2420.559326
2248.412109	2366.068115
2246.929688	2409.462402
2245.447266	2321.256104
2243.964844	2425.359863
2242.482422	2372.597412
2241.000000	2335.029541
2239.517578	2390.184814
2238.033203	2441.947266
2236.548828	2362.264648
2235.066406	2344.943604
2233.582031	2356.261719
2232.095703	2392.833496
2230.611328	2356.997070
2229.126953	2398.603760
2227.640625	2401.486816
2226.154297	2363.987305
2224.667969	2346.689453
2223.181641	2344.535156
2221.695313	2409.643066
2220.208984	2447.825684
2218.720703	2410.354004
2217.234375	2515.741455
2215.746094	2454.748291
2214.257813	2353.463379
2212.769531	2394.977051
2211.279297	2458.302979
2209.791016	2466.202148
2208.300781	2458.991455
2206.812500	2429.967285
2205.322266	2474.778809
2203.832031	2417.246094
2202.341797	2396.633301
2200.849609	2329.078125
2199.359375	2372.197021
2197.867188	2415.298096
2196.375000	2359.510254
2194.882813	2342.280273
2193.390625	2499.268555
2191.898438	2327.937744
2190.404297	2458.074463
2188.912109	2360.480957
2187.417969	2478.842285
2185.923828	2429.812988
2184.429688	2459.438477
2182.935547	2495.742920
2181.439453	2428.343018
2179.945313	2486.375732
2178.449219	2420.676270
2176.953125	2445.259033
2175.458984	2506.594971
2173.960938	2454.296631
2172.464844	2445.449463
2170.968750	2403.204590
2169.470703	2494.553955
2167.972656	2415.589600
2166.474609	2490.208740
2164.976563	2409.608154
2163.478516	2514.228760
2161.980469	2448.667969
2160.480469	2484.862793
2158.982422	2461.018066
2157.482422	2480.525146
2155.982422	2588.358643
2154.482422	2412.869385
2152.980469	2442.370117
2151.480469	2395.238037
2149.978516	2522.984863
2148.476563	2519.145264
2146.974609	2556.923340
2145.472656	2533.106201
2143.970703	2452.722656
2142.468750	2510.454834
2140.964844	2543.213623
2139.462891	2531.058594
2137.958984	2480.667725
2136.455078	2485.153076
2134.949219	2521.213867
2133.445313	2477.501465
2131.941406	2425.500244
2130.435547	2484.804443
2128.929688	2454.410645
2127.423828	2384.181641
2125.917969	2483.296875
2124.412109	2477.815674
2122.906250	2492.248047
2121.398438	2506.674316
2119.890625	2527.729004
2118.382813	2489.077148
2116.875000	2491.889160
2115.367188	2562.661865
2113.859375	2447.791504
2112.349609	2531.799805
2110.841797	2532.943848
2109.332031	2517.524658
2107.822266	2512.047119
2106.312500	2538.027832
2104.800781	2552.411377
2103.291016	2563.478760
2101.779297	2402.464355
2100.269531	2524.392578
2098.757813	2504.034180
2097.246094	2563.055908
2095.732422	2484.833984
2094.220703	2497.553711
2092.707031	2619.338623
2091.195313	2537.847900
2089.681641	2557.156494
2088.167969	2474.059326
2086.654297	2514.838867
2085.138672	2600.176270
2083.625000	2551.782471
2082.109375	2544.664307
2080.593750	2438.554443
2079.078125	2621.162109
2077.562500	2528.273438
2076.046875	2507.973877
2074.531250	2545.382324
2073.013672	2523.438965
2071.496094	2575.659668
2069.978516	2575.137207
2068.460938	2605.912109
2066.943359	2557.623291
2065.425781	2619.673584
2063.906250	2647.127686
2062.386719	2612.026855
2060.869141	2621.370117
2059.349609	2581.352539
2057.828125	2536.416748
2056.308594	2560.570068
2054.789063	2588.001953
2053.267578	2674.602295
2051.746094	2662.554443
2050.224609	2558.490967
2048.703125	2589.186279
2047.181641	2614.941162
2045.658203	2637.400879
2044.136719	2584.324951
2042.613281	2519.779541
2041.089844	2586.557373
2039.566406	2620.490479
2038.042969	2683.939453
2036.517578	2627.626465
2034.994141	2630.372314
2033.468750	2595.407227
2031.943359	2581.765869
2030.417969	2600.907715
2028.892578	2657.728027
2027.367188	2665.378906
2025.839844	2664.836914
2024.314453	2595.517822
2022.787109	2670.302002
2021.259766	2704.133545
2019.732422	2616.846436
2018.203125	2647.402100
2016.675781	2589.607666
2015.146484	2675.765137
2013.619141	2632.705078
2012.089844	2669.771729
2010.560547	2651.248291
2009.029297	2665.416748
2007.500000	2651.803223
2005.968750	2652.896973
2004.439453	2771.582520
2002.908203	2584.868408
2001.376953	2703.519043
1999.843750	2683.382080
1998.312500	2602.872803
1996.781250	2685.552490
1995.248047	2616.493896
1993.714844	2664.887939
1992.181641	2657.822754
1990.648438	2691.516357
1989.115234	2620.882324
1987.580078	2727.899902
1986.044922	2639.365234
1984.511719	2663.260986
1982.976563	2651.318359
1981.441406	2662.175781
1979.904297	2730.005371
1978.369141	2678.993896
1976.832031	2631.257813
1975.294922	2650.244385
1973.759766	2622.052002
1972.220703	2722.345215
1970.683594	2663.256836
1969.146484	2717.983887
1967.607422	2769.437744
1966.068359	2677.876953
1964.531250	2739.065430
1962.992188	2699.524414
1961.451172	2773.674561
1959.912109	2688.681396
1958.371094	2821.240967
1956.832031	2765.485352
1955.291016	2745.449707
1953.750000	2803.291260
1952.208984	2690.805176
1950.666016	2717.823242
1949.125000	2767.528320
1947.582031	2742.648926
1946.039063	2759.915771
1944.496094	2722.085693
1942.953125	2643.771729
1941.410156	2716.115234
1939.865234	2825.672607
1938.322266	2750.623047
1936.777344	2706.358154
1935.232422	2728.461426
1933.687500	2700.398682
1932.142578	2766.170166
1930.595703	2697.677979
1929.050781	2714.913574
1927.503906	2790.341309
1925.957031	2788.154785
1924.410156	2831.216553
1922.863281	2790.246338
1921.314453	2872.057861
1919.767578	2774.570801
1918.218750	2836.975586
1916.669922	2797.651367
1915.121094	2795.465332
1913.572266	2769.074707
1912.021484	2742.694824
1910.472656	2861.497314
1908.921875	2817.369385
1907.371094	2784.545654
1905.820313	2829.113037
1904.269531	2797.911865
1902.718750	2852.125977
1901.166016	2750.046631
1899.615234	2836.462402
1898.062500	2761.804199
1896.509766	2733.868164
1894.957031	2850.818115
1893.402344	2840.578125
1891.849609	2785.288574
1890.294922	2802.414307
1888.740234	2719.812012
1887.185547	2798.050537
1885.630859	2943.782471
1884.076172	2849.949463
1882.519531	2773.832520
1880.964844	2890.557617
1879.408203	2783.941162
1877.851563	2868.494141
1876.294922	2821.339111
1874.736328	2905.849365
1873.179688	2898.833496
1871.621094	2927.125488
1870.064453	2883.205322
1868.505859	2945.175293
1866.947266	2901.269043
1865.386719	2950.381592
1863.828125	2876.032471
1862.267578	2881.854004
1860.708984	2927.734863
1859.148438	2872.661377
1857.587891	2939.348877
1856.025391	2969.174316
1854.464844	2990.981689
1852.902344	2911.927002
1851.341797	2968.947998
1849.779297	2973.139404
1848.216797	2966.130127
1846.652344	2947.926514
1845.089844	2942.523926
1843.525391	2962.705322
1841.962891	2910.944092
1840.398438	2971.078613
1838.833984	2936.913086
1837.267578	2934.712646
1835.703125	2975.637939
1834.136719	3048.484375
1832.572266	2924.922363
1831.005859	2914.744141
1829.439453	2998.729248
1827.873047	2990.135254
1826.304688	2986.330566
1824.738281	2993.691650
1823.169922	3005.833496
1821.601563	2990.867432
1820.033203	3012.568115
1818.464844	3005.574707
1816.896484	2965.124512
1815.326172	2999.560547
1813.755859	3029.204102
1812.185547	2931.450195
1810.615234	2992.935059
1809.044922	3028.927979
1807.474609	3050.583740
1805.902344	3104.050781
1804.332031	3101.821777
1802.759766	3056.654053
1801.187500	2989.244385
1799.615234	2960.014893
1798.041016	3021.391357
1796.468750	2954.030029
1794.894531	2986.785156
1793.320313	2995.700928
1791.746094	3077.663818
1790.171875	3023.047363
1788.597656	3038.299316
1787.021484	2975.777832
1785.445313	3037.048828
1783.871094	3063.392822
1782.294922	3007.248535
1780.716797	2966.985107
1779.140625	3088.453613
1777.564453	2949.912109
1775.986328	3049.146729
1774.408203	3070.701172
1772.830078	3068.484619
1771.251953	3088.442139
1769.673828	3113.141846
1768.093750	3049.173828
1766.513672	3096.030762
1764.935547	3150.780518
1763.355469	3045.707031
1761.773438	3113.099365
1760.193359	3020.728760
1758.613281	3083.354492
1757.031250	3101.689453
1755.449219	3156.369385
1753.867188	3133.595459
1752.285156	3196.145508
1750.701172	3144.939941
1749.119141	3134.815918
1747.535156	3164.168945
1745.951172	3081.429199
1744.367188	3196.007568
1742.783203	3146.431885
1741.199219	3150.515625
1739.613281	3149.865479
1738.029297	3273.796631
1736.443359	3131.222656
1734.857422	3196.781982
1733.271484	3191.394287
1731.683594	3255.338135
1730.097656	3105.008057
1728.509766	3305.969971
1726.921875	3198.208008
1725.333984	3353.410400
1723.746094	3349.569824
1722.158203	3350.451904
1720.568359	3562.168457
1718.978516	3435.586914
1717.390625	3570.133545
1715.800781	3602.416992
1714.208984	3614.249512
1712.619141	3640.222900
1711.027344	3795.043945
1709.437500	3853.962402
1707.845703	4003.962402
1706.253906	3995.282471
1704.662109	4039.991211
1703.068359	3977.932861
1701.476563	3903.344238
1699.882813	3850.754395
1698.289063	3743.276367
1696.695313	3660.938965
1695.101563	3605.294922
1693.505859	3483.822754
1691.912109	3462.724121
1690.316406	3455.739014
1688.720703	3433.087402
1687.125000	3393.212891
1685.529297	3439.498535
1683.933594	3346.396729
1682.335938	3397.369385
1680.738281	3276.139404
1679.140625	3316.150391
1677.542969	3470.363037
1675.945313	3242.819336
1674.347656	3276.555908
1672.748047	3302.459961
1671.148438	3333.042969
1669.548828	3291.714355
1667.949219	3383.231689
1666.349609	3385.655762
1664.748047	3352.151611
1663.148438	3317.099365
1661.546875	3394.482178
1659.945313	3253.282227
1658.343750	3422.730225
1656.742188	3397.054199
1655.138672	3363.588135
1653.537109	3356.651855
1651.933594	3282.661621
1650.330078	3388.002686
1648.726563	3312.477295
1647.121094	3378.805664
1645.517578	3415.501221
1643.912109	3341.574463
1642.306641	3361.129395
1640.701172	3319.945313
1639.095703	3392.429932
1637.490234	3366.821533
1635.884766	3314.767822
1634.277344	3351.421875
1632.669922	3437.839355
1631.062500	3415.352539
1629.455078	3304.243164
1627.845703	3406.162354
1626.238281	3338.620850
1624.628906	3376.777344
1623.019531	3357.432617
1621.410156	3328.775879
1619.800781	3366.909912
1618.191406	3460.924561
1616.580078	3329.807861
1614.968750	3361.709229
1613.359375	3502.217285
1611.746094	3453.396729
1610.134766	3429.413574
1608.523438	3349.613037
1606.910156	3420.236816
1605.298828	3523.383301
1603.685547	3474.608154
1602.070313	3543.611816
1600.457031	3544.424805
1598.843750	3401.197266
1597.228516	3522.821289
1595.613281	3562.341553
1593.998047	3566.244629
1592.382813	3450.986328
1590.767578	3490.496338
1589.152344	3536.177246
1587.535156	3492.138184
1585.917969	3441.932373
1584.300781	3550.976807
1582.683594	3465.230469
1581.066406	3569.588623
1579.447266	3471.513916
1577.828125	3583.550049
1576.210938	3473.158203
1574.591797	3591.322998
1572.970703	3474.800537
1571.351563	3444.753906
1569.730469	3521.188232
1568.111328	3520.455566
1566.490234	3465.739258
1564.869141	3566.793945
1563.248047	3610.762207
1561.625000	3548.353516
1560.003906	3558.402344
1558.380859	3503.734131
1556.757813	3524.571045
1555.134766	3568.500977
1553.511719	3483.067627
1551.886719	3486.960693
1550.263672	3612.446777
1548.638672	3588.611328
1547.013672	3638.635498
1545.388672	3550.198975
1543.761719	3540.231934
1542.136719	3567.170410
1540.509766	3551.054443
1538.882813	3591.811523
1537.255859	3635.624512
1535.628906	3614.894775
1534.001953	3684.795898
1532.373047	3561.175537
1530.746094	3701.683350
1529.117188	3545.875244
1527.488281	3614.197021
1525.859375	3599.633789
1524.228516	3644.904541
1522.599609	3665.616455
1520.968750	3663.318359
1519.337891	3546.039063
1517.707031	3600.479004
1516.076172	3633.441650
1514.443359	3635.747559
1512.810547	3634.988770
1511.179688	3635.761475
1509.546875	3628.877930
1507.914063	3684.761963
1506.279297	3682.462158
1504.646484	3641.907715
1503.011719	3719.171875
1501.376953	3640.386963
1499.742188	3708.443115
1498.107422	3649.568848
1496.472656	3656.449707
1494.835938	3612.893555
1493.201172	3700.761475
1491.564453	3689.294678
1489.927734	3706.852051
1488.289063	3692.334229
1486.652344	3732.783447
1485.013672	3777.794678
1483.376953	3726.645020
1481.738281	3731.968994
1480.099609	3747.968506
1478.458984	3806.664063
1476.820313	3894.305908
1475.179688	3830.988281
1473.539063	3689.965576
1471.898438	3747.099365
1470.257813	3734.127441
1468.617188	3894.804932
1466.974609	3886.375732
1465.333984	3832.273193
1463.691406	3735.570557
1462.048828	3830.669922
1460.406250	3820.738525
1458.761719	3870.141357
1457.119141	3966.673096
1455.474609	3891.331055
1453.830078	3843.386475
1452.185547	3974.822510
1450.539063	3928.399658
1448.894531	3906.305908
1447.248047	4060.431641
1445.603516	4017.056641
1443.957031	4140.725586
1442.308594	4074.580078
1440.662109	4116.224609
1439.015625	4106.257324
1437.367188	4132.705566
1435.718750	4245.602051
1434.070313	4173.436523
1432.421875	4171.045898
1430.771484	4277.798828
1429.123047	4248.106445
1427.472656	4353.282715
1425.822266	4226.631836
1424.171875	4236.348145
1422.521484	4153.688477
1420.869141	4142.219727
1419.218750	4094.427734
1417.566406	4220.689453
1415.914063	4162.309570
1414.261719	4096.390137
1412.607422	4094.018555
1410.955078	4067.454834
1409.300781	3960.779053
1407.646484	3979.596680
1405.992188	3953.072754
1404.337891	3949.221436
1402.683594	3919.693604
1401.027344	3935.482666
1399.371094	4029.776855
1397.714844	3971.568848
1396.058594	3862.072021
1394.402344	3867.296631
1392.744141	3984.153564
1391.087891	3922.986572
1389.429688	3888.988037
1387.771484	3847.465332
1386.113281	3965.734619
1384.453125	3885.031006
1382.794922	3927.908447
1381.134766	3895.449707
1379.474609	3890.113037
1377.814453	3925.433105
1376.154297	3850.843018
1374.492188	3830.467529
1372.832031	3922.958740
1371.169922	3944.700928
1369.507813	3976.962891
1367.845703	3965.600098
1366.181641	3933.192627
1364.519531	3954.913574
1362.855469	3921.018311
1361.191406	3951.747803
1359.527344	3944.907471
1357.863281	3972.614502
1356.199219	3853.151123
1354.533203	3912.392578
1352.867188	3907.066406
1351.201172	3946.762451
1349.535156	3923.426758
1347.869141	3865.599609
1346.201172	3867.785400
1344.535156	3973.429199
1342.867188	3875.151855
1341.199219	3901.313965
1339.531250	3861.532715
1337.861328	3863.716064
1336.193359	3955.767822
1334.523438	3938.462158
1332.853516	4008.000977
1331.183594	3815.555908
1329.511719	3964.408936
1327.841797	3893.250000
1326.169922	3934.315918
1324.500000	3960.408203
1322.828125	3836.958496
1321.154297	3909.404541
1319.482422	3872.708496
1317.808594	4000.407471
1316.136719	3932.332031
1314.462891	3879.222412
1312.789063	3884.378418
1311.113281	3904.462891
1309.439453	3896.175781
1307.763672	3887.891846
1306.087891	3915.422852
1304.412109	3920.564453
1302.736328	3927.195068
1301.060547	4017.330811
1299.382813	3830.120850
1297.707031	3885.955078
1296.029297	3987.963867
1294.351563	3817.267334
1292.671875	3949.039795
1290.994141	3942.249268
1289.314453	4021.823730
1287.636719	3910.811279
1285.957031	3893.613281
1284.275391	3989.515869
1282.595703	3991.649170
1280.914063	3929.821045
1279.234375	3998.886230
1277.552734	3947.490234
1275.871094	3951.115967
1274.189453	3911.640381
1272.505859	3971.734863
1270.822266	4015.462646
1269.140625	3934.411133
1267.457031	3952.883789
1265.771484	4002.525391
1264.087891	3958.634766
1262.404297	3965.218262
1260.718750	3899.098389
1259.033203	3933.874756
1257.347656	4062.068359
1255.662109	4080.485107
1253.974609	4039.596924
1252.287109	3892.014160
1250.601563	3858.591553
1248.914063	4093.331055
1247.224609	4073.209961
1245.537109	4024.961182
1243.849609	4025.590332
1242.160156	3892.998291
1240.470703	4074.204102
1238.781250	4060.025635
1237.091797	4119.817383
1235.400391	4058.307373
1233.708984	4104.765625
1232.019531	4074.329834
1230.328125	4111.896484
1228.634766	4111.025879
1226.943359	4150.045410
1225.250000	4103.376465
1223.558594	4120.229004
1221.865234	4013.050537
1220.171875	4040.247803
1218.476563	4099.901855
1216.783203	3936.724365
1215.087891	3952.117920
1213.392578	4026.500977
1211.697266	4074.309326
1210.001953	3962.874756
1208.306641	3967.930908
1206.609375	3975.931885
1204.912109	3972.142334
1203.214844	4008.126221
1201.517578	3976.349365
1199.820313	3993.175293
1198.121094	4040.907959
1196.423828	3994.425781
1194.724609	4043.608643
1193.025391	4003.029785
1191.326172	3969.822021
1189.625000	3957.215820
1187.923828	3966.667725
1186.224609	3940.837646
1184.523438	4020.829590
1182.822266	4086.094482
1181.119141	3953.019531
1179.417969	3994.771729
1177.714844	3938.126465
1176.011719	3944.630859
1174.308594	3942.325684
1172.605469	3984.043945
1170.900391	3959.724365
1169.197266	3963.283936
1167.492188	4009.369873
1165.787109	4059.834473
1164.080078	3998.871826
1162.375000	3935.003662
1160.667969	3991.312256
1158.962891	4010.973389
1157.255859	4011.585693
1155.548828	4023.912109
1153.839844	4122.608887
1152.132813	4033.911621
1150.423828	4043.297852
1148.714844	4002.935791
1147.005859	3934.798340
1145.296875	4031.945313
1143.585938	3985.762207
1141.876953	3948.369141
1140.166016	3944.606689
1138.455078	4000.754395
1136.744141	4127.000488
1135.033203	4007.816162
1133.320313	4075.596191
1131.607422	3965.232666
1129.894531	4032.992188
1128.181641	4058.402100
1126.468750	4035.653076
1124.753906	3961.858887
1123.041016	4017.893311
1121.326172	4046.199951
1119.611328	3959.329590
1117.896484	3975.976318
1116.179688	4091.702637
1114.464844	4045.669189
1112.748047	4103.069336
1111.031250	4038.121338
1109.314453	4018.334473
1107.595703	3946.153809
1105.878906	4074.834961
1104.160156	3970.662598
1102.441406	3966.907471
1100.722656	4121.679688
1099.003906	4043.736328
1097.283203	3957.103516
1095.562500	4063.814453
1093.843750	4035.338867
1092.123047	4030.120361
1090.400391	4008.926270
1088.679688	4064.707275
1086.957031	4055.129395
1085.236328	4035.394043
1083.513672	4044.692627
1081.789063	3994.497314
1080.066406	4060.375244
1078.341797	4084.165039
1076.619141	4207.996582
1074.894531	4141.861328
1073.169922	4149.674316
1071.443359	4135.747070
1069.718750	4250.768066
1067.992188	4155.709473
1066.265625	4188.130371
1064.539063	4100.364258
1062.812500	4100.936523
1061.085938	4023.356934
1059.357422	4013.816406
1057.628906	3931.947754
1055.900391	3951.356689
1054.171875	3936.052734
1052.443359	3975.691895
1050.712891	3893.900635
1048.982422	4030.352295
1047.251953	3984.703125
1045.521484	3995.407471
1043.791016	3936.787354
1042.058594	3882.523438
1040.328125	3940.879150
1038.595703	3880.864258
1036.863281	3937.751953
1035.128906	3848.910400
1033.396484	3869.722168
1031.662109	3910.712891
1029.927734	3834.908691
1028.193359	3920.571777
1026.458984	3852.002686
1024.724609	3813.718994
1022.988281	3882.045410
1021.251953	3905.697754
1019.515625	3871.745605
1017.779297	3876.675537
1016.042969	3933.415283
1014.304688	3801.631836
1012.568359	3838.222168
1010.830078	3837.400635
1009.089844	3849.521484
1007.351563	3838.633545
1005.613281	3768.817383
1003.873047	3871.479980
1002.132813	3836.168701
1000.392578	3875.568115
998.652344	3808.675293
996.910156	3767.656006
995.169922	3861.594482
993.427734	3814.839844
991.685547	3835.546631
989.941406	3906.455566
988.199219	3849.680664
986.455078	3718.361816
984.712891	3896.776611
982.968750	3834.305908
981.222656	3866.444824
979.478516	3824.065674
977.734375	3773.109863
975.988281	3859.662354
974.242188	3837.357178
972.496094	3832.239746
970.748047	3798.499512
969.001953	3789.099365
967.253906	3709.602539
965.505859	3700.224854
963.757813	3779.511475
962.009766	3754.395752
960.259766	3737.866943
958.511719	3797.086670
956.761719	3654.822510
955.011719	3735.461182
953.259766	3694.670898
951.509766	3652.469727
949.757813	3725.918701
948.007813	3750.809082
946.255859	3668.668213
944.501953	3676.440186
942.750000	3649.976807
940.996094	3717.642090
939.244141	3728.249512
937.490234	3734.575684
935.734375	3780.802002
933.980469	3735.821045
932.224609	3693.708008
930.470703	3670.127441
928.714844	3675.034180
926.958984	3706.986572
925.201172	3728.962158
923.445313	3715.354004
921.687500	3629.196045
919.929688	3730.825195
918.171875	3759.885986
916.414063	3777.560059
914.654297	3709.940430
912.894531	3713.406006
911.136719	3669.982666
909.375000	3697.603516
907.615234	3695.387939
905.855469	3708.791992
904.093750	3671.084473
902.332031	3779.580322
900.570313	3675.180908
898.808594	3697.088867
897.044922	3669.343994
895.283203	3719.604736
893.519531	3687.613281
891.755859	3702.411377
889.992188	3511.715332
888.226563	3685.231934
886.462891	3694.354248
884.697266	3505.198486
882.931641	3573.824463
881.166016	3580.132813
879.398438	3607.668213
877.632813	3604.061035
875.865234	3669.776123
874.097656	3625.138672
872.330078	3590.418945
870.562500	3632.059326
868.792969	3672.267822
867.023438	3633.320068
865.253906	3571.782715
863.484375	3531.460449
861.714844	3536.348145
859.943359	3580.768799
858.173828	3530.588135
856.402344	3622.977051
854.628906	3620.784668
852.857422	3603.074463
851.085938	3502.155029
849.312500	3508.450439
847.539063	3581.005371
845.765625	3566.137207
843.992188	3518.863037
842.216797	3502.605225
840.441406	3513.118408
838.667969	3557.426514
836.892578	3497.521729
835.115234	3555.890625
833.339844	3548.085938
831.562500	3596.568604
829.785156	3522.638184
828.007813	3499.373535
826.230469	3564.708984
824.451172	3600.492188
822.673828	3630.637451
820.894531	3558.183594
819.115234	3737.252441
817.335938	3544.003906
815.554688	3595.199951
813.775391	3622.504395
811.994141	3693.313721
810.212891	3615.324951
808.431641	3676.282471
806.648438	3850.844971
804.867188	3887.881348
803.083984	3986.600586
801.300781	4259.118652
799.515625	4482.460449
797.732422	4823.418457
795.947266	4969.484375
794.164063	5139.298828
792.378906	5098.975098
790.591797	4980.261230
788.806641	4888.194824
787.019531	4624.026367
785.234375	4467.712402
783.447266	4263.902344
781.658203	3984.654785
779.871094	3901.291748
778.082031	3734.083984
776.294922	3694.139893
774.505859	3637.443848
772.716797	3590.551758
770.925781	3508.759766
769.136719	3501.017334
767.345703	3491.881836
765.554688	3442.269287
763.763672	3480.600098
761.970703	3436.592041
760.179688	3504.201660
758.386719	3372.342041
756.593750	3462.246094
754.800781	3380.639160
753.005859	3342.274414
751.212891	3472.536377
749.417969	3381.227295
747.623047	3445.959229
745.828125	3353.302490
744.033203	3390.166504
742.236328	3319.833252
740.439453	3341.379639
738.642578	3392.135254
736.845703	3331.583984
735.048828	3422.651123
733.250000	3378.804443
731.451172	3334.976563
729.652344	3360.659912
727.853516	3334.918701
726.054688	3273.067871
724.253906	3270.968506
722.455078	3298.031494
720.654297	3315.363770
718.853516	3352.121094
717.050781	3272.291992
715.250000	3325.691650
713.447266	3369.357666
711.644531	3254.905273
709.841797	3212.602295
708.037109	3231.311768
706.234375	3291.590820
704.429688	3322.745117
702.625000	3252.756592
700.820313	3304.680908
699.013672	3227.802490
697.208984	3275.555908
695.402344	3284.532715
693.595703	3188.334717
691.789063	3323.227051
689.982422	3265.792236
688.173828	3285.825928
686.365234	3307.233398
684.556641	3218.045654
682.748047	3307.177002
680.939453	3255.333984
679.128906	3231.141602
677.318359	3303.637939
675.507813	3231.116699
673.697266	3277.351074
671.886719	3304.242432
670.074219	3335.261230
668.261719	3289.008057
666.449219	3375.188965
664.636719	3182.770996
662.824219	3268.937012
661.009766	3157.951904
659.195313	3285.429199
657.380859	3262.668701
655.566406	3289.508301
653.751953	3140.052490
651.935547	3242.637207
650.119141	3247.437256
648.302734	3205.440186
646.486328	3167.589355
644.669922	3184.783447
642.851563	3162.082764
641.033203	3242.525391
639.214844	3211.572754
637.396484	3184.756836
635.578125	3206.050049
633.757813	3247.942383
631.937500	3179.927002
630.117188	3179.233398
628.296875	3214.238770
626.474609	3160.001465
624.654297	3201.857422
622.832031	3094.133301
621.009766	3175.767578
619.185547	3110.613281
617.363281	3160.669678
615.539063	3170.947510
613.714844	3153.807861
611.890625	3181.896484
610.066406	3130.510986
608.242188	3213.380859
606.416016	3164.749268
604.589844	3221.561768
602.763672	3138.728516
600.937500	3094.250000
599.109375	3155.144775
597.281250	3177.710449
595.453125	3126.413818
593.625000	3131.200195
591.796875	3207.070313
589.966797	3075.162598
588.138672	3161.942871
586.308594	3120.267578
584.478516	3092.268799
582.646484	3146.214600
580.816406	3159.179443
578.984375	3109.350586
577.152344	3175.538574
575.320313	3110.719727
573.486328	3145.504883
571.654297	3117.541992
569.820313	3119.587158
567.986328	3087.552246
566.152344	3135.939697
564.316406	3169.317627
562.482422	3127.756348
560.646484	3105.280518
558.810547	3165.875977
556.974609	3181.519531
555.136719	3179.462158
553.300781	3039.967529
551.462891	3078.755859
549.625000	3169.213623
547.785156	3153.561035
545.947266	3257.558350
544.107422	3120.916504
542.267578	3143.335938
540.427734	3158.951660
538.587891	3178.635498
536.748047	3133.122314
534.906250	3147.371582
533.064453	3203.696777
531.222656	3154.135742
529.378906	3134.447754
527.537109	3136.474121
525.693359	3082.890625
523.849609	3056.450684
522.005859	3040.867676
520.162109	3032.068604
518.316406	3027.338379
516.470703	3009.061768
514.625000	2951.511719
512.779297	3049.723145
510.933594	2988.127441
509.085938	2918.436523
507.238281	3027.416748
505.390625	2953.688232
503.542969	2984.153320
501.695313	2960.506836
499.845703	2940.927002
497.996094	2938.929688
496.146484	2888.277100
494.296875	3016.012695
492.447266	2905.922607
490.595703	2898.531250
488.744141	2924.902100
486.892578	2939.110596
485.041016	2950.613281
483.187500	2886.539551
481.333984	2856.223389
479.480469	2850.200439
477.626953	2873.848877
475.773438	2863.779541
473.917969	2794.402100
472.064453	2859.825684
470.208984	2926.567383
468.351563	2831.626465
466.496094	2797.333740
464.638672	2815.569824
462.783203	2867.453613
460.925781	2850.672119
459.066406	2778.726807
457.208984	2774.079590
455.349609	2796.335205
453.490234	2803.788574
451.630859	2838.127441
449.771484	2805.243408
447.912109	2722.651123
446.050781	2777.137939
444.189453	2772.497070
442.328125	2720.854248
440.466797	2783.360840
438.603516	2719.656494
436.740234	2791.530273
434.876953	2723.826416
433.013672	2744.690674
431.150391	2711.897461
429.285156	2640.232666
427.419922	2720.087402
425.554688	2773.100830
423.689453	2728.269531
421.824219	2746.424561
419.957031	2739.122314
418.089844	2671.562256
416.222656	2641.519287
414.355469	2735.973389
412.488281	2661.767090
410.619141	2654.490723
408.750000	2694.035156
406.880859	2672.043457
405.011719	2675.465576
403.140625	2751.071533
401.269531	2703.688232
399.398438	2717.790039
397.527344	2625.014404
395.656250	2604.401611
393.783203	2658.574219
391.910156	2687.357666
390.037109	2616.025391
388.164063	2663.487061
386.291016	2593.525146
384.416016	2619.629150
382.541016	2649.722168
380.666016	2634.471680
378.791016	2567.243164
376.914063	2629.310791
375.039063	2650.047852
373.162109	2584.191895
371.285156	2519.696533
369.406250	2528.460449
367.529297	2486.635498
365.650391	2564.608154
363.771484	2566.702881
361.892578	2530.217773
360.011719	2521.678711
358.132813	2471.922363
356.251953	2583.046875
354.371094	2461.526123
352.490234	2527.423340
350.607422	2465.752197
348.724609	2439.970459
346.841797	2505.828369
344.958984	2494.653076
343.076172	2503.392822
341.193359	2474.970947
339.308594	2427.986572
337.423828	2456.632080
335.539063	2506.483398
333.652344	2440.960449
331.767578	2480.188232
329.880859	2413.374268
327.994141	2449.940430
326.107422	2384.487305
324.218750	2406.474609
322.330078	2435.072754
320.443359	2382.904053
318.552734	2406.200195
316.664063	2388.465332
314.775391	2336.341064
312.884766	2374.180908
310.994141	2339.273438
309.103516	2353.298096
307.210938	2410.935303
305.320313	2405.115234
303.427734	2417.794434
301.535156	2322.153564
299.642578	2394.272705
297.748047	2224.740967
295.853516	2292.889404
293.960938	2293.700928
292.064453	2278.678467
290.169922	2245.194580
288.275391	2285.581299
286.378906	2242.880371
284.482422	2285.885986
282.585938	2269.563232
280.687500	2261.153809
278.791016	2242.208740
276.892578	2181.124512
274.994141	2185.907715
273.095703	2234.134033
271.195313	2237.586914
269.294922	2212.087646
267.396484	2203.702637
265.494141	2234.781982
263.593750	2223.765381
261.691406	2196.976563
259.791016	2224.092529
257.888672	2185.487549
255.986328	2230.988281
254.082031	2164.812988
252.177734	2147.259033
250.275391	2141.530029
248.371094	2105.610596
246.464844	2178.639160
244.560547	2130.917969
242.654297	2106.831299
240.748047	2090.624268
238.841797	2196.372314
236.935547	2081.829102
235.027344	2146.900635
233.119141	2219.805420
231.210938	2048.998535
229.302734	2079.978516
227.392578	2057.254150
225.484375	2055.487305
223.574219	2026.233643
221.664063	2088.597900
219.751953	2050.190918
217.841797	2035.346191
215.929688	2100.281982
214.017578	2067.127686
212.105469	2104.576172
210.193359	2032.228271
208.279297	2087.959961
206.365234	2066.594238
204.451172	1998.220703
202.537109	2059.145508
200.621094	1958.167725
198.705078	1987.750244
196.789063	1976.868652
194.873047	2024.697510
192.957031	1987.726685
191.039063	2032.923584
189.123047	2078.100098
187.203125	2030.714355
185.285156	1983.349609
183.367188	1936.005737
181.447266	1999.398682
179.527344	2002.859741
177.607422	2029.754517
175.687500	2020.190308
173.765625	1936.451660
171.843750	2012.784180
169.921875	1999.327271
168.000000	2050.901855
166.078125	1994.535034
164.154297	2033.088013
162.230469	1972.851074
160.306641	1986.703735
158.382813	1983.662354
156.457031	1968.933350
154.531250	1930.838013
152.605469	1995.316650
150.679688	2011.743896
148.753906	1965.878540
146.826172	1965.439697
144.898438	2005.208862
142.970703	2031.992676
141.042969	2049.689209
139.113281	2046.639160
137.183594	2056.549072
135.253906	2072.932373
133.324219	2071.173828
131.394531	2059.056152
129.462891	2061.185547
127.531250	2016.714600
125.599609	2079.676514
123.667969	2044.277954
121.734375	1985.610962
119.802734	1919.210449
117.869141	1914.902466
115.935547	1791.668701
114.000000	1747.326538
112.066406	1674.577515
110.130859	1756.879639
108.195313	1729.364502
106.257813	1727.686523
104.322266	1820.248901
102.384766	1770.796265
100.447266	1836.209473
