#Wave		#Intensity
3501.405273	3833.563721
3500.167969	3770.950195
3498.929688	3768.220703
3497.691406	3973.452393
3496.453125	3952.517578
3495.213867	3885.170166
3493.975586	3944.975098
3492.736328	3690.025879
3491.497070	3923.317627
3490.256836	3811.657471
3489.017578	3808.922852
3487.777344	3858.604980
3486.537109	3821.596924
3485.296875	3921.638428
3484.055664	3918.884521
3482.814453	3881.885498
3481.573242	3832.815674
3480.332031	3916.669189
3479.089844	3855.530762
3477.848633	3943.374023
3476.606445	3922.504883
3475.363281	3853.350830
3474.121094	3935.108643
3472.877930	3960.515137
3471.634766	3927.591553
3470.391602	3856.477051
3469.147461	3849.718994
3467.904297	3907.280518
3466.660156	3910.562500
3465.416016	3889.733398
3464.170898	3876.946777
3462.926758	3998.728027
3461.681641	3945.764893
3460.436523	3941.005127
3459.190430	3882.050781
3457.945313	4051.903564
3456.699219	3936.767822
3455.453125	4006.239502
3454.206055	4053.621338
3452.959961	3788.146973
3451.712891	3923.771484
3450.465820	3902.984619
3449.218750	4000.455322
3447.970703	3871.453125
3446.722656	3964.885742
3445.474609	3924.074951
3444.226563	3993.429199
3442.978516	3932.604736
3441.729492	3947.877686
3440.480469	3963.144775
3439.231445	3942.384033
3437.981445	3923.631836
3436.731445	3898.885010
3435.481445	4026.153320
3434.231445	3823.423096
3432.981445	3850.691162
3431.730469	3911.930664
3430.479492	3949.164063
3429.228516	4016.355957
3427.977539	3877.748047
3426.725586	3924.953613
3425.473633	3832.347168
3424.221680	3953.419922
3422.969727	3978.624268
3421.716797	3912.006592
3420.463867	3863.374023
3419.210938	3826.730469
3417.958008	3897.819092
3416.704102	3815.311035
3415.450195	3790.661133
3414.196289	3835.798340
3412.942383	3862.978516
3411.687500	3730.716309
3410.433594	3863.509766
3409.178711	3844.849365
3407.922852	3953.669434
3406.667969	3865.300049
3405.412109	3866.559570
3404.156250	3829.996338
3402.900391	3797.427246
3401.643555	3818.597168
3400.386719	3839.759033
3399.129883	3771.401611
3397.873047	3726.934814
3396.616211	3773.950439
3395.358398	3797.092041
3394.100586	3810.286621
3392.842773	3755.909180
3391.583984	3860.502441
3390.326172	3822.027832
3389.067383	3749.803467
3387.808594	3800.722656
3386.548828	3784.119873
3385.289063	3682.168213
3384.030273	3713.224365
3382.769531	3736.332031
3381.509766	3767.365967
3380.249023	3752.767578
3378.988281	3827.414795
3377.727539	3757.293701
3376.466797	3816.052490
3375.205078	3704.337891
3373.943359	3743.268066
3372.681641	3708.877441
3371.419922	3605.169434
3370.157227	3733.217529
3368.894531	3704.788330
3367.631836	3658.551758
3366.369141	3679.631104
3365.105469	3714.554932
3363.842773	3646.577881
3362.578125	3721.059082
3361.314453	3564.102539
3360.050781	3693.940430
3358.786133	3582.521484
3357.521484	3755.794434
3356.255859	3638.476807
3354.991211	3667.426270
3353.725586	3704.266846
3352.459961	3600.851807
3351.194336	3653.489746
3349.927734	3686.362549
3348.661133	3636.310059
3347.394531	3544.828125
3346.127930	3668.476807
3344.860352	3634.239746
3343.593750	3536.891846
3342.326172	3774.861084
3341.057617	3586.817383
3339.790039	3625.565918
3338.521484	3599.252930
3337.252930	3547.330322
3335.984375	3576.211914
3334.714844	3553.862793
3333.446289	3673.334473
3332.176758	3591.897705
3330.906250	3516.398438
3329.636719	3576.753662
3328.366211	3615.436279
3327.095703	3634.426758
3325.825195	3460.607422
3324.554688	3583.870850
3323.283203	3516.324463
3322.011719	3635.597412
3320.740234	3544.476074
3319.467773	3634.215332
3318.195313	3507.756104
3316.922852	3650.516602
3315.650391	3653.751221
3314.377930	3505.755859
3313.104492	3471.707275
3311.831055	3637.924316
3310.557617	3541.051025
3309.283203	3526.639893
3308.009766	3586.795654
3306.735352	3523.336670
3305.460938	3559.932861
3304.185547	3506.308105
3302.911133	3572.303223
3301.635742	3591.226074
3300.359375	3486.667969
3299.083984	3548.709473
3297.807617	3497.095947
3296.531250	3610.040039
3295.254883	3601.519287
3293.978516	3571.463135
3292.701172	3551.206543
3291.423828	3485.939941
3290.146484	3587.036133
3288.869141	3558.961426
3287.590820	3382.228027
3286.312500	3352.246826
3285.034180	3508.042969
3283.754883	3501.509766
3282.476563	3506.706787
3281.197266	3388.780029
3279.917969	3614.791748
3278.637695	3498.842529
3277.357422	3558.725098
3276.078125	3505.320801
3274.796875	3512.462646
3273.516602	3435.662354
3272.235352	3550.158447
3270.954102	3570.946533
3269.672852	3537.099609
3268.391602	3516.919434
3267.109375	3516.249023
3265.827148	3379.089355
3264.544922	3433.030518
3263.262695	3562.966064
3261.979492	3447.311523
3260.696289	3452.499268
3259.413086	3502.488525
3258.128906	3544.668213
3256.845703	3491.416504
3255.561523	3418.716309
3254.277344	3534.854492
3252.992188	3466.065430
3251.707031	3521.831299
3250.422852	3484.197021
3249.136719	3510.762451
3247.851563	3465.365723
3246.565430	3346.103516
3245.279297	3434.884766
3243.993164	3354.544189
3242.707031	3449.118896
3241.419922	3460.117432
3240.132813	3373.990234
3238.845703	3386.940674
3237.557617	3386.293945
3236.270508	3356.527832
3234.982422	3450.992920
3233.694336	3481.383057
3232.405273	3538.924316
3231.116211	3474.234131
3229.827148	3434.781494
3228.538086	3379.830811
3227.249023	3379.185303
3225.958984	3438.628662
3224.668945	3486.421143
3223.378906	3293.931885
3222.087891	3430.846436
3220.797852	3335.284424
3219.506836	3448.900391
3218.215820	3361.115479
3216.923828	3308.207764
3215.631836	3417.892334
3214.339844	3372.733643
3213.047852	3312.114990
3211.755859	3257.322021
3210.462891	3432.684814
3209.169922	3314.082764
3207.876953	3359.844971
3206.583008	3351.471436
3205.289063	3403.006104
3203.995117	3342.461426
3202.701172	3349.548828
3201.407227	3304.487793
3200.112305	3280.684326
3198.817383	3368.863525
3197.521484	3323.824219
3196.226563	3228.625977
3194.930664	3324.481689
3193.634766	3441.520996
3192.338867	3284.635010
3191.041992	3245.438965
3189.745117	3239.033936
3188.448242	3213.354736
3187.151367	3218.521484
3185.854492	3215.978516
3184.556641	3344.439697
3183.258789	3336.094727
3181.959961	3144.803467
3180.662109	3257.800781
3179.363281	3228.301025
3178.064453	3287.347900
3176.764648	3259.778076
3175.465820	3270.697266
3174.166016	3193.127930
3172.866211	3296.369141
3171.565430	3203.441650
3170.265625	3287.416260
3168.964844	3227.201416
3167.664063	3266.939453
3166.362305	3270.156006
3165.061523	3194.610596
3163.759766	3109.490967
3162.458008	3233.711670
3161.155273	3238.851563
3159.853516	3238.230713
3158.550781	3226.094971
3157.248047	3169.831787
3155.944336	3190.326416
3154.640625	3210.813232
3153.337891	3158.420166
3152.033203	3056.197021
3150.729492	3120.786865
3149.424805	3200.684570
3148.120117	3177.076172
3146.815430	3157.308350
3145.509766	3240.983643
3144.205078	3140.776123
3142.899414	3076.987061
3141.592773	3242.947266
3140.287109	3225.098877
3138.980469	3205.343506
3137.673828	3128.197510
3136.367188	3156.290771
3135.059570	3188.197998
3133.752930	3132.133057
3132.445313	3104.766602
3131.136719	3096.524902
3129.829102	3116.952148
3128.520508	3273.031006
3127.211914	3159.692871
3125.902344	3103.697021
3124.593750	3148.931396
3123.284180	3031.863281
3121.974609	3052.278564
3120.664063	3013.522217
3119.354492	3098.809326
3118.043945	3082.951904
3116.733398	3067.100342
3115.421875	3060.790039
3114.111328	3022.068604
3112.799805	3151.116211
3111.488281	2959.917236
3110.175781	3077.493652
3108.864258	2998.788818
3107.551758	3078.215332
3106.238281	3024.298584
3104.925781	3082.744385
3103.612305	3110.707764
3102.298828	2946.419678
3100.985352	3119.026611
3099.671875	2987.144775
3098.357422	3142.556641
3097.042969	3037.347412
3095.727539	3057.680176
3094.413086	3013.364990
3093.097656	2976.669922
3091.782227	3021.707764
3090.466797	2979.324707
3089.150391	2944.556641
3087.833984	3042.756104
3086.517578	2954.817383
3085.201172	3039.686523
3083.883789	3054.287598
3082.566406	2964.499023
3081.249023	2943.055664
3079.931641	3003.198242
3078.613281	3034.865479
3077.294922	3011.524170
3075.976563	3026.112793
3074.658203	3019.843018
3073.338867	3026.842773
3072.019531	2982.675537
3070.700195	2947.998291
3069.379883	2972.055664
3068.060547	2986.634277
3066.740234	3012.567871
3065.418945	2976.017822
3064.098633	2971.658936
3062.777344	2952.162354
3061.456055	2926.996826
3060.134766	2958.591553
3058.812500	2959.912598
3057.491211	2946.105469
3056.167969	2960.662354
3054.845703	2931.738281
3053.523438	2865.028076
3052.200195	2989.182373
3050.876953	2879.036621
3049.552734	3063.580566
3048.229492	2976.123291
3046.905273	2871.707275
3045.580078	2929.671387
3044.255859	3053.668945
3042.930664	2939.863281
3041.605469	2952.502197
3040.280273	2927.411865
3038.955078	2970.221680
3037.628906	2945.137451
3036.302734	2914.406982
3034.976563	3028.815430
3033.649414	2967.930176
3032.322266	2946.632813
3030.995117	2883.903076
3029.667969	2917.246094
3028.339844	3014.596191
3027.012695	2918.002441
3025.684570	2938.143555
3024.355469	3012.850586
3023.027344	2965.231445
3021.698242	2838.623291
3020.369141	2935.875000
3019.039063	2846.929199
3017.708984	2951.661621
3016.378906	3016.880127
3015.048828	2864.072998
3013.718750	2918.009277
3012.387695	3005.739258
3011.056641	2960.081055
3009.725586	2893.784180
3008.393555	2943.917480
3007.062500	2945.225586
3005.730469	2884.599854
3004.397461	2938.458252
3003.065430	2973.535156
3001.732422	2946.700928
3000.399414	2901.123535
2999.065430	2938.061768
2997.732422	2911.249512
2996.398438	3008.146729
2995.064453	2857.655273
2993.729492	2907.687500
2992.395508	2998.909424
2991.060547	2882.216797
2989.724609	2975.280518
2988.389648	2914.799072
2987.053711	2882.416260
2985.717773	2954.840820
2984.381836	2800.849365
2983.044922	2856.425781
2981.708984	2938.164063
2980.372070	2922.636475
2979.034180	2955.722412
2977.697266	2874.776123
2976.359375	2894.776611
2975.021484	2959.611816
2973.682617	2871.239014
2972.344727	2949.127441
2971.005859	3010.179199
2969.666016	2877.039795
2968.327148	2926.881836
2966.987305	2982.303223
2965.647461	2869.770996
2964.307617	2913.988525
2962.967773	2997.357422
2961.626953	2866.239014
2960.286133	2994.332031
2958.944336	3001.208252
2957.603516	2913.031006
2956.261719	2966.504639
2954.919922	2900.724121
2953.577148	2915.063232
2952.235352	2979.678711
2950.892578	2839.456055
2949.549805	2877.998779
2948.206055	2899.775391
2946.863281	2906.656738
2945.519531	2922.837891
2944.174805	2966.914307
2942.831055	2955.180420
2941.486328	2941.591553
2940.141602	2833.196045
2938.796875	2851.233643
2937.451172	2965.897217
2936.105469	2959.748047
2934.759766	2894.157471
2933.414063	2878.738037
2932.067383	2876.322754
2930.720703	2873.908203
2929.374023	3010.707031
2928.027344	2924.755615
2926.679688	2887.079102
2925.332031	2973.708008
2923.984375	2913.779541
2922.635742	2954.010254
2921.287109	3003.495117
2919.938477	2828.668945
2918.589844	2898.544922
2917.240234	2960.981689
2915.890625	2851.105225
2914.541016	2902.413330
2913.191406	2866.664551
2911.840820	2899.434814
2910.490234	2950.703369
2909.139648	2826.128418
2907.789063	2971.762207
2906.437500	2873.132080
2905.085938	2898.469482
2903.734375	2914.550537
2902.381836	2915.833252
2901.029297	2930.055420
2899.676758	2947.968750
2898.324219	2880.871582
2896.970703	2874.769043
2895.617188	2959.180420
2894.263672	2884.732422
2892.910156	2876.785889
2891.555664	2890.995361
2890.201172	2871.975830
2888.846680	2856.654297
2887.491211	2876.394043
2886.135742	2953.310791
2884.780273	2952.736328
2883.424805	3068.330811
2882.068359	2912.872559
2880.712891	2903.089844
2879.355469	2891.467773
2877.999023	2964.605957
2876.641602	2914.290771
2875.284180	2886.096924
2873.926758	2927.888428
2872.569336	2857.357422
2871.210938	2926.748779
2869.852539	2924.338867
2868.494141	2936.649658
2867.134766	2877.209229
2865.775391	2856.416992
2864.416016	2986.425049
2863.056641	2969.296387
2861.696289	2950.336182
2860.335938	2936.896729
2858.975586	2976.749756
2857.614258	2933.915771
2856.253906	2801.095703
2854.892578	2962.155762
2853.530273	2926.693359
2852.168945	2937.137451
2850.806641	2892.516846
2849.444336	2935.993164
2848.082031	2918.909424
2846.718750	2955.026123
2845.355469	2886.595215
2843.992188	2928.204590
2842.627930	2878.137207
2841.264648	2932.561768
2839.900391	2981.467529
2838.535156	2958.900635
2837.170898	3009.613525
2835.805664	2840.535889
2834.440430	2964.494385
2833.075195	2963.916260
2831.708984	2921.240234
2830.342773	3094.520020
2828.976563	2942.056396
2827.609375	2972.580322
2826.243164	2851.291504
2824.875977	3059.191895
2823.507813	2979.981934
2822.140625	2913.597900
2820.772461	2978.819092
2819.404297	3003.817871
2818.035156	2957.562012
2816.666992	3022.736084
2815.297852	2949.103516
2813.928711	3021.556396
2812.558594	3004.538330
2811.189453	2972.926514
2809.819336	2994.241943
2808.448242	2973.590088
2807.078125	2940.178711
2805.707031	3001.606201
2804.335938	3046.600342
2802.963867	2874.656250
2801.592773	2903.254883
2800.220703	2993.795166
2798.848633	3035.111816
2797.475586	3007.197266
2796.102539	2982.935547
2794.729492	3007.842773
2793.356445	2981.770020
2791.982422	2893.826416
2790.609375	2911.457520
2789.234375	3040.059082
2787.860352	3003.085938
2786.485352	3031.596436
2785.110352	2936.455322
2783.735352	3030.411133
2782.360352	2944.394775
2780.984375	2974.710938
2779.608398	2919.624756
2778.231445	3006.243896
2776.855469	3032.897461
2775.478516	3008.699707
2774.101563	2999.034180
2772.723633	2918.585693
2771.346680	2996.046143
2769.968750	2979.131104
2768.589844	2958.594482
2767.211914	2999.728760
2765.833008	2993.701904
2764.454102	2956.857910
2763.075195	3016.093506
2761.695313	2988.320068
2760.315430	3038.466797
2758.935547	3074.101807
2757.554688	3006.488037
2756.174805	2995.034668
2754.793945	3032.467285
2753.412109	2926.889160
2752.031250	2940.793701
2750.649414	2920.314697
2749.267578	2975.822021
2747.884766	2949.917969
2746.502930	2961.998291
2745.120117	3033.735840
2743.736328	2904.802490
2742.353516	2978.330078
2740.969727	2977.746582
2739.585938	2939.225830
2738.202148	3084.950195
2736.817383	3012.112549
2735.432617	2968.190918
2734.047852	2969.414307
2732.662109	3022.975098
2731.277344	3024.186768
2729.891602	3030.810059
2728.504883	3001.356689
2727.119141	2989.947998
2725.732422	3034.436523
2724.345703	3075.302246
2722.958008	3063.885254
2721.571289	3036.255371
2720.183594	3035.659668
2718.794922	2999.039795
2717.407227	3003.854004
2716.018555	2990.661133
2714.629883	3004.475586
2713.241211	2980.488525
2711.851563	3118.461914
2710.461914	3051.282959
2709.072266	3002.117676
2707.681641	3062.674072
2706.291016	2990.150879
2704.900391	3135.177246
2703.509766	3078.843994
2702.119141	3105.194336
2700.727539	3052.482178
2699.334961	3064.456787
2697.943359	3072.834717
2696.550781	3120.711670
2695.158203	3057.265869
2693.765625	3112.306396
2692.372070	3124.256592
2690.979492	3125.437012
2689.584961	3067.420898
2688.191406	3032.742432
2686.796875	3143.319336
2685.402344	3119.395752
2684.007813	3113.405518
2682.613281	3148.634521
2681.217773	3010.054932
2679.822266	3082.908447
2678.425781	3085.884277
2677.030273	3122.881104
2675.633789	3177.766113
2674.237305	3026.786621
2672.839844	3045.876709
2671.442383	3043.488525
2670.044922	3143.067383
2668.647461	3101.312988
2667.249023	3127.525635
2665.850586	3082.214844
2664.452148	3151.320068
2663.053711	3220.397949
2661.654297	3126.852051
2660.254883	3088.721924
2658.855469	3107.760986
2657.455078	3064.291992
2656.054688	3163.669434
2654.654297	3146.981689
2653.252930	3160.639404
2651.852539	3081.507568
2650.451172	3061.277344
2649.048828	3217.632324
2647.647461	3134.968750
2646.245117	3118.305420
2644.842773	3069.562256
2643.439453	3186.583252
2642.037109	3130.718262
2640.633789	3151.479492
2639.229492	3156.202148
2637.826172	3128.868408
2636.421875	3167.421875
2635.017578	3157.897217
2633.613281	3109.221924
2632.208008	3055.227295
2630.802734	3148.914551
2629.397461	3102.047852
2627.991211	3119.219971
2626.584961	3170.166992
2625.178711	3096.658447
2623.772461	3170.694580
2622.365234	3122.091797
2620.958008	3192.540039
2619.550781	3120.860596
2618.142578	3081.175537
2616.735352	3176.447266
2615.326172	3220.200684
2613.917969	3120.174316
2612.508789	3224.253906
2611.099609	3067.493164
2609.690430	3173.315674
2608.281250	3169.142578
2606.871094	3166.744141
2605.460938	3173.210205
2604.049805	3213.349121
2602.639648	3186.134277
2601.228516	3176.646973
2599.817383	3170.705811
2598.405273	3157.682861
2596.993164	3194.243164
2595.581055	3186.531250
2594.168945	3070.855713
2592.755859	3176.425049
2591.342773	3159.874512
2589.929688	3185.783936
2588.516602	3211.682861
2587.102539	3127.943359
2585.688477	3222.789307
2584.273438	3230.989990
2582.859375	3198.542969
2581.444336	3125.472168
2580.028320	3179.614746
2578.613281	3150.728760
2577.197266	3238.393799
2575.781250	3186.556885
2574.365234	3313.011230
2572.948242	3187.062012
2571.531250	3244.656006
2570.114258	3201.678223
2568.696289	3158.717285
2567.278320	3209.228760
2565.860352	3192.727539
2564.442383	3315.479248
2563.023438	3223.185791
2561.604492	3190.833740
2560.185547	3281.804199
2558.766602	3179.004150
2557.346680	3342.136475
2555.926758	3286.898926
2554.505859	3196.479736
2553.084961	3347.192383
2551.665039	3233.923340
2550.243164	3187.545898
2548.822266	3338.170410
2547.400391	3210.902344
2545.978516	3245.428467
2544.555664	3239.512939
2543.133789	3316.196777
2541.710938	3285.670410
2540.287109	3234.075684
2538.864258	3296.663818
2537.440430	3231.039063
2536.016602	3381.385010
2534.591797	3280.663086
2533.167969	3316.867432
2531.743164	3253.044434
2530.317383	3198.017822
2528.892578	3257.017334
2527.466797	3331.775391
2526.041016	3385.464844
2524.614258	3369.018066
2523.187500	3282.476807
2521.760742	3241.526123
2520.333984	3263.657471
2518.906250	3348.833252
2517.479492	3418.214844
2516.050781	3256.464600
2514.623047	3327.586914
2513.194336	3290.175293
2511.765625	3270.275635
2510.336914	3253.882568
2508.907227	3372.172852
2507.477539	3273.576416
2506.047852	3232.714844
2504.617188	3405.126709
2503.186523	3428.918457
2501.755859	3202.834229
2500.325195	3263.342773
2498.893555	3409.411621
2497.461914	3344.122803
2496.030273	3409.804443
2494.597656	3279.954346
2493.166016	3340.386719
2491.732422	3393.815430
2490.299805	3368.718018
2488.866211	3385.491211
2487.432617	3217.409180
2485.999023	3377.172852
2484.564453	3428.797119
2483.130859	3469.943604
2481.695313	3326.372070
2480.260742	3341.390625
2478.825195	3372.078857
2477.389648	3435.841797
2475.954102	3334.176514
2474.517578	3432.736084
2473.081055	3437.275146
2471.644531	3481.833252
2470.207031	3376.759277
2468.770508	3355.216064
2467.332031	3434.543701
2465.894531	3409.519531
2464.456055	3410.580322
2463.017578	3352.549072
2461.579102	3410.961914
2460.140625	3432.868408
2458.701172	3383.551514
2457.261719	3441.922852
2455.821289	3361.371094
2454.380859	3435.346191
2452.940430	3474.580566
2451.500000	3479.095215
2450.058594	3462.789307
2448.617188	3474.241943
2447.175781	3393.778809
2445.734375	3372.297363
2444.291992	3465.234619
2442.849609	3383.087402
2441.407227	3384.146973
2439.963867	3437.179199
2438.520508	3448.619873
2437.077148	3408.102783
2435.632813	3445.515381
2434.188477	3450.022705
2432.744141	3489.142578
2431.299805	3498.830078
2429.854492	3518.893555
2428.409180	3483.599121
2426.963867	3469.070313
2425.517578	3539.268555
2424.071289	3424.472168
2422.625000	3537.858643
2421.177734	3386.820313
2419.730469	3463.888672
2418.283203	3508.107910
2416.835938	3541.947510
2415.387695	3534.335205
2413.939453	3483.569580
2412.491211	3529.474609
2411.041992	3539.124512
2409.593750	3493.563477
2408.143555	3477.343018
2406.693359	3619.785645
2405.244141	3436.300293
2403.794922	3482.158691
2402.343750	3526.275146
2400.892578	3468.708008
2399.441406	3524.868652
2397.990234	3544.835205
2396.539063	3588.903320
2395.085938	3545.142822
2393.634766	3465.249512
2392.181641	3517.911865
2390.728516	3579.156982
2389.275391	3566.399902
2387.822266	3584.608643
2386.369141	3477.270752
2384.914063	3454.224854
2383.460938	3482.758789
2382.005859	3528.468262
2380.550781	3644.611084
2379.095703	3568.291504
2377.640625	3552.119873
2376.183594	3585.756836
2374.728516	3478.588379
2373.271484	3637.540283
2371.814453	3521.822510
2370.357422	3625.791748
2368.900391	3604.480225
2367.443359	3564.309082
2365.986328	3621.904053
2364.527344	3581.745117
2363.068359	3675.312012
2361.611328	3635.158203
2360.152344	3608.728516
2358.693359	3640.558105
2357.232422	3626.127441
2355.773438	3606.564941
2354.312500	3598.995117
2352.851563	3548.632324
2351.392578	3638.631836
2349.931641	3625.926270
2348.468750	3493.468994
2347.007813	3607.371338
2345.546875	3671.634521
2344.083984	3542.666504
2342.621094	3627.429932
2341.158203	3707.031738
2339.695313	3555.919678
2338.232422	3686.756104
2336.769531	3585.241943
2335.304688	3647.710449
2333.839844	3727.227783
2332.375000	3748.673340
2330.910156	3671.121338
2329.445313	3615.782959
2327.980469	3739.598633
2326.515625	3593.867188
2325.048828	3570.978027
2323.582031	3648.692871
2322.115234	3607.050537
2320.648438	3725.630127
2319.181641	3752.147461
2317.714844	3664.510742
2316.246094	3599.051758
2314.779297	3697.101807
2313.310547	3711.684570
2311.841797	3642.850098
2310.373047	3669.351074
2308.904297	3648.196777
2307.433594	3676.386719
2305.964844	3719.873291
2304.494141	3642.602539
2303.023438	3602.767334
2301.552734	3753.334473
2300.082031	3635.313721
2298.611328	3695.755859
2297.138672	3778.259033
2295.667969	3680.685791
2294.195313	3741.082031
2292.722656	3672.418213
2291.250000	3619.059326
2289.777344	3733.739990
2288.302734	3683.783447
2286.830078	3698.312500
2285.355469	3782.377197
2283.880859	3762.964600
2282.408203	3674.045898
2280.931641	3675.003662
2279.457031	3752.225830
2277.982422	3636.251221
2276.505859	3669.403320
2275.029297	3685.604248
2273.554688	3732.279785
2272.078125	3721.372070
2270.599609	3810.339600
2269.123047	3728.339600
2267.646484	3752.971680
2266.167969	3753.909668
2264.689453	3812.353760
2263.210938	3701.670898
2261.732422	3773.627197
2260.253906	3919.929688
2258.775391	3782.250977
2257.294922	3732.490479
2255.814453	3833.100586
2254.333984	3850.909424
2252.853516	3909.238281
2251.373047	3829.101807
2249.892578	3759.125000
2248.412109	3808.998535
2246.929688	3742.428223
2245.447266	3745.049805
2243.964844	3791.521973
2242.482422	3834.603027
2241.000000	3818.658447
2239.517578	3881.943359
2238.033203	3896.330078
2236.548828	3812.984863
2235.066406	3842.540527
2233.582031	3772.713379
2232.095703	3899.931396
2230.611328	3791.398193
2229.126953	3873.113770
2227.640625	3831.944824
2226.154297	3895.110840
2224.667969	3872.458008
2223.181641	3903.634277
2221.695313	3874.262207
2220.208984	3866.757568
2218.720703	3793.702148
2217.234375	3853.437012
2215.746094	3916.508057
2214.257813	3846.845703
2212.769531	3795.685791
2211.279297	3905.746582
2209.791016	3861.310303
2208.300781	3838.712158
2206.812500	3869.823730
2205.322266	3830.454346
2203.832031	3911.878906
2202.341797	3912.767822
2200.849609	3925.393799
2199.359375	3939.690918
2197.867188	3959.010498
2196.375000	3986.700928
2194.882813	3979.195557
2193.390625	4000.169922
2191.898438	3878.779541
2190.404297	3867.950928
2188.912109	3900.653076
2187.417969	3946.731934
2185.923828	4022.913330
2184.429688	3965.217041
2182.935547	3899.180176
2181.439453	4028.841797
2179.945313	4036.389404
2178.449219	3930.255615
2176.953125	3926.119873
2175.458984	3992.170166
2173.960938	3949.596436
2172.464844	3948.799561
2170.968750	3919.611572
2169.470703	3990.618164
2167.972656	4004.837158
2166.474609	4027.395264
2164.976563	3913.110352
2163.478516	3955.697754
2161.980469	4049.976807
2160.480469	4069.171387
2158.982422	4110.033691
2157.482422	3999.180176
2155.982422	4068.373047
2154.482422	4000.897461
2152.980469	4110.045898
2151.480469	4074.236572
2149.978516	4098.393555
2148.476563	3961.035156
2146.974609	4113.383789
2145.472656	4006.035645
2143.970703	3940.330322
2142.468750	4059.317139
2140.964844	3973.667480
2139.462891	3999.471924
2137.958984	4031.916260
2136.455078	4009.490967
2134.949219	4060.201416
2133.445313	4120.861328
2131.941406	4058.559570
2130.435547	4157.396973
2128.929688	4038.651123
2127.423828	4147.413574
2125.917969	4023.737793
2124.412109	4132.458984
2122.906250	4168.126953
2121.398438	4099.266602
2119.890625	4164.781738
2118.382813	4114.190430
2116.875000	4053.672119
2115.367188	4145.677734
2113.859375	4173.012207
2112.349609	4177.138184
2110.841797	4053.704102
2109.332031	4129.071777
2107.822266	4098.428711
2106.312500	4158.855957
2104.800781	4215.947754
2103.291016	4172.065918
2101.779297	4124.892578
2100.269531	4089.317627
2098.757813	4146.376465
2097.246094	4110.811035
2095.732422	4212.479492
2094.220703	4124.021484
2092.707031	4086.829346
2091.195313	4153.743164
2089.681641	4147.945801
2088.167969	4206.561523
2086.654297	4108.285645
2085.138672	4218.063477
2083.625000	4208.955566
2082.109375	4151.994141
2080.593750	4136.303223
2079.078125	4198.147949
2077.562500	4218.736816
2076.046875	4234.370117
2074.531250	4281.319824
2073.013672	4188.150391
2071.496094	4246.625000
2069.978516	4211.164551
2068.460938	4264.668945
2066.943359	4189.693359
2065.425781	4192.136230
2063.906250	4298.290039
2062.386719	4126.245117
2060.869141	4201.103516
2059.349609	4172.281738
2057.828125	4248.744629
2056.308594	4149.208984
2054.789063	4181.250977
2053.267578	4257.664551
2051.746094	4158.187012
2050.224609	4234.573730
2048.703125	4230.427734
2047.181641	4262.419922
2045.658203	4192.580566
2044.136719	4332.931152
2042.613281	4333.692383
2041.089844	4242.544922
2039.566406	4189.174805
2038.042969	4247.383301
2036.517578	4267.842773
2034.994141	4255.496582
2033.468750	4189.049316
2031.943359	4316.056641
2030.417969	4406.957031
2028.892578	4324.133301
2027.367188	4313.424805
2025.839844	4296.168945
2024.314453	4221.605957
2022.787109	4356.636230
2021.259766	4352.476563
2019.732422	4469.422852
2018.203125	4219.808594
2016.675781	4371.087402
2015.146484	4326.038574
2013.619141	4351.321777
2012.089844	4235.994141
2010.560547	4334.839844
2009.029297	4288.199707
2007.500000	4305.299805
2005.968750	4369.765625
2004.439453	4388.475098
2002.908203	4351.658203
2001.376953	4350.771973
1999.843750	4291.125977
1998.312500	4353.895996
1996.781250	4432.956055
1995.248047	4427.159668
1993.714844	4302.309570
1992.181641	4360.133789
1990.648438	4367.396973
1989.115234	4343.688477
1987.580078	4357.469727
1986.044922	4384.278809
1984.511719	4398.045898
1982.976563	4447.635254
1981.441406	4472.780762
1979.904297	4538.613770
1978.369141	4451.426758
1976.832031	4510.727539
1975.294922	4434.969727
1973.759766	4403.160645
1972.220703	4418.525391
1970.683594	4438.761230
1969.146484	4602.040527
1967.607422	4432.075684
1966.068359	4525.416992
1964.531250	4350.662598
1962.992188	4521.946777
1961.451172	4389.486328
1959.912109	4487.630371
1958.371094	4347.113281
1956.832031	4450.094238
1955.291016	4512.467773
1953.750000	4388.253906
1952.208984	4478.187500
1950.666016	4569.705078
1949.125000	4413.129395
1947.582031	4504.622559
1946.039063	4518.288574
1944.496094	4522.227051
1942.953125	4498.624023
1941.410156	4492.846680
1939.865234	4512.979980
1938.322266	4479.678711
1936.777344	4436.679199
1935.232422	4500.504883
1933.687500	4410.597168
1932.142578	4471.166504
1930.595703	4543.031738
1929.050781	4551.805664
1927.503906	4418.310059
1925.957031	4488.524902
1924.410156	4500.535645
1922.863281	4625.637207
1921.314453	4447.005371
1919.767578	4455.786133
1918.218750	4464.562988
1916.669922	4576.654297
1915.121094	4587.016113
1913.572266	4568.327637
1912.021484	4488.339355
1910.472656	4566.459473
1908.921875	4439.735352
1907.371094	4530.731445
1905.820313	4599.122070
1904.269531	4559.500488
1902.718750	4490.889648
1901.166016	4404.585449
1899.615234	4712.940918
1898.062500	4509.068359
1896.509766	4569.327148
1894.957031	4627.951660
1893.402344	4506.299805
1891.849609	4572.958008
1890.294922	4625.109863
1888.740234	4595.211426
1887.185547	4751.861816
1885.630859	4517.765625
1884.076172	4582.744141
1882.519531	4612.340332
1880.964844	4489.281738
1879.408203	4644.186035
1877.851563	4657.689453
1876.294922	4589.292480
1874.736328	4575.508789
1873.179688	4592.227051
1871.621094	4684.363770
1870.064453	4656.127930
1868.505859	4621.486816
1866.947266	4553.180176
1865.386719	4614.781738
1863.828125	4617.041992
1862.267578	4616.095215
1860.708984	4591.111328
1859.148438	4646.245605
1857.587891	4658.106934
1856.025391	4727.617676
1854.464844	4745.861816
1852.902344	4647.237305
1851.341797	4740.713867
1849.779297	4707.737305
1848.216797	4713.170898
1846.652344	4683.412598
1845.089844	4688.848145
1843.525391	4643.117188
1841.962891	4610.193359
1840.398438	4671.577637
1838.833984	4774.480957
1837.267578	4706.403320
1835.703125	4762.937500
1834.136719	4696.486328
1832.572266	4650.817871
1831.005859	4742.445313
1829.439453	4709.552734
1827.873047	4853.784180
1826.304688	4742.713867
1824.738281	4692.296875
1823.169922	4828.468750
1821.601563	4742.979980
1820.033203	4673.465820
1818.464844	4792.026855
1816.896484	4679.511230
1815.326172	4790.057617
1813.755859	4763.590820
1812.185547	4811.973145
1810.615234	4793.472168
1809.044922	4786.120117
1807.474609	4804.231934
1805.902344	4757.104980
1804.332031	4697.271484
1802.759766	4675.630859
1801.187500	4814.591309
1799.615234	4745.244141
1798.041016	4715.659180
1796.468750	4784.606934
1794.894531	4759.791992
1793.320313	4855.704102
1791.746094	4768.949707
1790.171875	4701.283203
1788.597656	4900.329102
1787.021484	4904.082031
1785.445313	4747.570313
1783.871094	4746.593262
1782.294922	4736.099121
1780.716797	4768.425293
1779.140625	4840.374023
1777.564453	4734.759277
1775.986328	4798.760742
1774.408203	4748.654297
1772.830078	4812.625977
1771.251953	4905.079590
1769.673828	4750.470703
1768.093750	4812.818359
1766.513672	4772.255859
1764.935547	4864.640625
1763.355469	4828.830078
1761.773438	4865.799805
1760.193359	4779.394043
1758.613281	4893.836914
1757.031250	4946.578125
1755.449219	4967.686035
1753.867188	4832.342285
1752.285156	4847.145020
1750.701172	4899.851074
1749.119141	4759.866699
1747.535156	4946.777344
1745.951172	4770.532227
1744.367188	4895.810059
1742.783203	4888.488281
1741.199219	4983.714844
1739.613281	4799.720215
1738.029297	4835.000000
1736.443359	4893.915039
1734.857422	4878.718262
1733.271484	4852.495117
1731.683594	4982.274414
1730.097656	4902.478516
1728.509766	5046.368652
1726.921875	4960.292969
1725.333984	4960.843262
1723.746094	4895.283203
1722.158203	4908.435547
1720.568359	4979.798340
1718.978516	4947.308105
1717.390625	4862.930664
1715.800781	5011.306152
1714.208984	4970.968750
1712.619141	4996.661621
1711.027344	5058.487305
1709.437500	5041.730469
1707.845703	4944.870117
1706.253906	5028.653809
1704.662109	4996.211426
1703.068359	4844.475586
1701.476563	5012.979980
1699.882813	4909.947266
1698.289063	4957.566406
1696.695313	5114.962402
1695.101563	4952.379883
1693.505859	4963.898926
1691.912109	5125.897461
1690.316406	5068.416992
1688.720703	5081.470703
1687.125000	4977.025391
1685.529297	5112.259766
1683.933594	5078.317871
1682.335938	5136.759766
1680.738281	4977.603027
1679.140625	5144.023926
1677.542969	5155.476074
1675.945313	5163.794922
1674.347656	5082.962402
1672.748047	5119.438477
1671.148438	5074.604980
1669.548828	5089.184082
1667.949219	5033.436035
1666.349609	5044.892578
1664.748047	5098.519531
1663.148438	5264.567871
1661.546875	5129.196777
1659.945313	5114.084961
1658.343750	5125.511230
1656.742188	5232.119141
1655.138672	5176.431152
1653.537109	5095.809570
1651.933594	5216.391113
1650.330078	5185.686523
1648.726563	5103.553223
1647.121094	5066.650391
1645.517578	5109.228516
1643.912109	5133.094727
1642.306641	5161.623047
1640.701172	5087.364746
1639.095703	5171.937988
1637.490234	5198.883301
1635.884766	5241.379395
1634.277344	5220.065430
1632.669922	5161.425781
1631.062500	5151.023438
1629.455078	5121.965820
1627.845703	5127.121582
1626.238281	5133.829102
1624.628906	5128.101563
1623.019531	5305.707031
1621.410156	5188.105957
1619.800781	5185.476074
1618.191406	5212.348145
1616.580078	5180.218750
1614.968750	5235.016602
1613.359375	5190.481445
1611.746094	5218.879883
1610.134766	5337.228516
1608.523438	5275.640625
1606.910156	5231.132813
1605.298828	5307.551270
1603.685547	5204.163086
1602.070313	5238.719727
1600.457031	5209.746582
1598.843750	5301.592773
1597.228516	5246.293945
1595.613281	5375.250000
1593.998047	5254.948242
1592.382813	5309.566895
1590.767578	5246.574707
1589.152344	5344.484863
1587.535156	5313.988770
1585.917969	5305.152832
1584.300781	5347.334961
1582.683594	5336.949707
1581.066406	5368.290527
1579.447266	5362.538574
1577.828125	5265.655762
1576.210938	5313.978516
1574.591797	5360.736816
1572.970703	5327.204102
1571.351563	5404.806641
1569.730469	5306.470703
1568.111328	5317.708008
1566.490234	5319.686035
1564.869141	5371.008789
1563.248047	5453.145020
1561.625000	5394.977051
1560.003906	5415.429199
1558.380859	5377.322754
1556.757813	5399.310059
1555.134766	5416.666992
1553.511719	5457.114258
1551.886719	5295.869629
1550.263672	5377.881836
1548.638672	5339.829102
1547.013672	5475.645996
1545.388672	5434.511719
1543.761719	5421.076172
1542.136719	5399.958008
1540.509766	5428.040527
1538.882813	5423.834961
1537.255859	5478.022461
1535.628906	5278.698730
1534.001953	5380.508301
1532.373047	5434.669922
1530.746094	5373.659180
1529.117188	5453.894043
1527.488281	5448.152344
1525.859375	5470.031738
1524.228516	5418.267090
1522.599609	5484.621094
1520.968750	5455.875488
1519.337891	5352.020020
1517.707031	5445.935059
1516.076172	5487.707520
1514.443359	5472.772949
1512.810547	5473.162598
1511.179688	5511.838867
1509.546875	5423.411621
1507.914063	5436.057129
1506.279297	5309.418457
1504.646484	5390.941406
1503.011719	5464.780762
1501.376953	5446.813965
1499.742188	5679.652344
1498.107422	5490.407227
1496.472656	5532.061523
1494.835938	5456.019531
1493.201172	5431.959961
1491.564453	5525.540039
1489.927734	5455.655273
1488.289063	5500.325684
1486.652344	5509.863281
1485.013672	5618.611328
1483.376953	5617.436523
1481.738281	5510.986328
1480.099609	5563.224121
1478.458984	5554.435547
1476.820313	5611.215820
1475.179688	5421.008789
1473.539063	5627.159180
1471.898438	5537.600098
1470.257813	5556.247559
1468.617188	5550.516113
1466.974609	5528.034668
1465.333984	5607.573730
1463.691406	5714.479004
1462.048828	5720.893066
1460.406250	5654.267090
1458.761719	5744.360840
1457.119141	5495.241211
1455.474609	5696.336914
1453.830078	5713.388672
1452.185547	5631.631836
1450.539063	5534.712402
1448.894531	5627.754883
1447.248047	5758.733887
1445.603516	5695.259766
1443.957031	5646.996094
1442.308594	5691.356445
1440.662109	5609.721680
1439.015625	5726.908691
1437.367188	5739.363281
1435.718750	5726.026367
1434.070313	5796.102539
1432.421875	5696.335449
1430.771484	5799.736816
1429.123047	5795.490234
1427.472656	5765.485840
1425.822266	5849.112793
1424.171875	5846.372070
1422.521484	5796.689453
1420.869141	5915.077637
1419.218750	5818.477051
1417.566406	5791.530273
1415.914063	5905.304688
1414.261719	5842.045410
1412.607422	5842.332520
1410.955078	5797.256836
1409.300781	5740.105957
1407.646484	5760.062012
1405.992188	5757.342285
1404.337891	5821.098145
1402.683594	5801.750488
1401.027344	5765.799316
1399.371094	5826.492676
1397.714844	5846.402832
1396.058594	5870.832031
1394.402344	5759.450195
1392.744141	5782.378418
1391.087891	5921.432129
1389.429688	5944.315918
1387.771484	5836.025879
1386.113281	5913.180176
1384.453125	5928.515137
1382.794922	5892.616211
1381.134766	5784.426270
1379.474609	5897.670410
1377.814453	5769.950195
1376.154297	5889.170410
1374.492188	5814.183105
1372.832031	5889.704590
1371.169922	5858.377441
1369.507813	5771.409668
1367.845703	5857.418457
1366.181641	5916.327637
1364.519531	5883.516113
1362.855469	5906.325195
1361.191406	5832.959961
1359.527344	6037.541504
1357.863281	5982.201660
1356.199219	5916.374023
1354.533203	6023.222656
1352.867188	5789.302734
1351.201172	5924.645508
1349.535156	5944.403809
1347.869141	6096.156738
1346.201172	5926.904785
1344.535156	6003.626465
1342.867188	5900.424805
1341.199219	6065.546875
1339.531250	5915.921875
1337.861328	5983.591309
1336.193359	5980.833496
1334.523438	6049.957031
1332.853516	6087.609863
1331.183594	5965.080566
1329.511719	6037.155762
1327.841797	6004.462891
1326.169922	5998.709961
1324.500000	6081.200684
1322.828125	6096.367676
1321.154297	6110.033203
1319.482422	6150.596191
1317.808594	6161.254883
1316.136719	6125.593262
1314.462891	6169.113770
1312.789063	6082.688477
1311.113281	6178.458008
1309.439453	6196.561523
1307.763672	6122.123535
1306.087891	6038.763672
1304.412109	6085.229004
1302.736328	6207.742676
1301.060547	6157.223145
1299.382813	6085.852051
1297.707031	6217.229980
1296.029297	6181.642090
1294.351563	6277.184570
1292.671875	6208.826172
1290.994141	6141.985352
1289.314453	6286.612305
1287.636719	6242.113281
1285.957031	6292.888672
1284.275391	6185.907227
1282.595703	6342.303223
1280.914063	6363.275879
1279.234375	6251.884766
1277.552734	6342.747070
1275.871094	6507.895020
1274.189453	6331.150879
1272.505859	6343.186035
1270.822266	6335.903809
1269.140625	6304.860352
1267.457031	6303.528320
1265.771484	6386.819336
1264.087891	6324.613281
1262.404297	6283.208496
1260.718750	6437.666504
1259.033203	6506.023926
1257.347656	6383.038574
1255.662109	6301.621094
1253.974609	6414.435059
1252.287109	6398.257813
1250.601563	6285.770020
1248.914063	6380.737305
1247.224609	6411.973145
1245.537109	6468.370117
1243.849609	6502.534668
1242.160156	6493.757813
1240.470703	6350.312500
1238.781250	6365.244141
1237.091797	6443.778809
1235.400391	6497.137207
1233.708984	6509.069824
1232.019531	6432.296387
1230.328125	6416.154297
1228.634766	6527.103027
1226.943359	6502.082520
1225.250000	6450.484375
1223.558594	6512.620117
1221.865234	6536.341309
1220.171875	6579.241699
1218.476563	6428.787598
1216.783203	6663.511230
1215.087891	6566.209961
1213.392578	6454.200684
1211.697266	6522.139160
1210.001953	6563.511230
1208.306641	6551.802734
1206.609375	6615.254883
1204.912109	6643.319824
1203.214844	6599.193848
1201.517578	6588.958496
1199.820313	6619.954590
1198.121094	6636.215820
1196.423828	6596.542480
1194.724609	6731.990723
1193.025391	6724.678223
1191.326172	6737.960449
1189.625000	6664.474609
1187.923828	6633.656738
1186.224609	6651.357910
1184.523438	6679.338867
1182.822266	6652.943848
1181.119141	6801.367676
1179.417969	6773.488281
1177.714844	6805.822754
1176.011719	6747.124512
1174.308594	6794.127441
1172.605469	6698.770020
1170.900391	6836.723145
1169.197266	6836.738281
1167.492188	6754.629883
1165.787109	6891.015625
1164.080078	6888.085938
1162.375000	6892.485352
1160.667969	6810.433105
1158.962891	6933.504883
1157.255859	6848.548828
1155.548828	6983.273926
1153.839844	6959.830078
1152.132813	7024.216797
1150.423828	6889.557129
1148.714844	6905.649414
1147.005859	7043.142578
1145.296875	7035.795898
1143.585938	6915.867676
1141.876953	6987.487793
1140.166016	7002.078613
1138.455078	7023.968750
1136.744141	7018.092285
1135.033203	6942.110352
1133.320313	7085.199707
1131.607422	7003.395020
1129.894531	7064.669434
1128.181641	7105.487305
1126.468750	7085.007813
1124.753906	7058.702148
1123.041016	7189.914063
1121.326172	7131.518555
1119.611328	7214.551758
1117.896484	7199.898438
1116.179688	7086.164551
1114.464844	7121.077148
1112.748047	7027.798828
1111.031250	7205.418457
1109.314453	7129.631836
1107.595703	7144.125000
1105.878906	7285.222656
1104.160156	7232.746094
1102.441406	7187.564941
1100.722656	7167.126953
1099.003906	7222.307617
1097.283203	7267.288574
1095.562500	7232.311035
1093.843750	7185.722656
1092.123047	7354.170898
1090.400391	7399.083496
1088.679688	7339.417969
1086.957031	7271.065918
1085.236328	7224.516602
1083.513672	7375.359863
1081.789063	7324.454102
1080.066406	7295.329590
1078.341797	7251.713379
1076.619141	7328.468262
1074.894531	7187.731445
1073.169922	7294.904297
1071.443359	7257.120117
1069.718750	7427.978027
1067.992188	7413.356445
1066.265625	7237.993164
1064.539063	7420.327637
1062.812500	7263.854492
1061.085938	7318.746582
1059.357422	7343.229004
1057.628906	7315.622070
1055.900391	7328.522949
1054.171875	7370.338379
1052.443359	7402.015625
1050.712891	7297.811523
1048.982422	7345.385254
1047.251953	7520.079590
1045.521484	7381.248047
1043.791016	7241.031250
1042.058594	7466.168945
1040.328125	7369.299805
1038.595703	7298.449219
1036.863281	7380.579102
1035.128906	7501.624512
1033.396484	7429.347168
1031.662109	7509.953125
1029.927734	7439.145996
1028.193359	7496.652344
1026.458984	7552.692383
1024.724609	7444.459961
1022.988281	7369.404297
1021.251953	7540.646484
1019.515625	7484.319336
1017.779297	7455.366699
1016.042969	7551.639160
1014.304688	7555.778809
1012.568359	7587.250488
1010.830078	7518.025879
1009.089844	7539.424805
1007.351563	7605.382813
1005.613281	7491.638672
1003.873047	7544.643555
1002.132813	7505.672363
1000.392578	7509.811035
998.652344	7595.808105
996.910156	7632.949219
995.169922	7621.265625
993.427734	7652.643555
991.685547	7750.013672
989.941406	7715.357422
988.199219	7659.200684
986.455078	7534.235352
984.712891	7592.835938
982.968750	7611.276367
981.222656	7629.708008
979.478516	7628.072754
977.734375	7599.220703
975.988281	7534.576660
974.242188	7653.236328
972.496094	7567.134766
970.748047	7781.628418
969.001953	7728.446289
967.253906	7650.965820
965.505859	7842.416992
963.757813	7679.144043
962.009766	7817.607422
960.259766	7675.849121
958.511719	7759.947754
956.761719	7824.006348
955.011719	7823.755859
953.259766	7772.090820
951.509766	7651.909668
949.757813	7768.754395
948.007813	7642.916016
946.255859	7735.453125
944.501953	7730.938965
942.750000	7918.980957
940.996094	7821.736328
939.244141	7744.493652
937.490234	7841.183594
935.734375	7886.527832
933.980469	7723.831055
932.224609	7873.167969
930.470703	7874.324707
928.714844	7858.393555
926.958984	7865.246094
925.201172	7993.073242
923.445313	7913.092285
921.687500	7982.523926
919.929688	7926.758789
918.171875	7896.613770
916.414063	7877.854980
914.654297	7810.774902
912.894531	7936.996582
911.136719	7906.873047
909.375000	8001.767578
907.615234	8059.695313
905.855469	7999.745117
904.093750	7959.694824
902.332031	7987.787598
900.570313	8059.855957
898.808594	7934.695801
897.044922	7986.886719
895.283203	7996.512207
893.519531	8103.958984
891.755859	7984.564941
889.992188	8004.103516
888.226563	7962.708008
886.462891	8002.073242
884.697266	8003.182617
882.931641	8154.379883
881.166016	7902.056641
879.398438	8043.302734
877.632813	8106.660645
875.865234	8109.158203
874.097656	8028.204102
872.330078	8039.201172
870.562500	8094.020508
868.792969	8055.525391
867.023438	8101.837402
865.253906	7964.454102
863.484375	8048.904297
861.714844	8007.625488
859.943359	8001.663086
858.173828	8004.172363
856.402344	8143.583008
854.628906	8162.992676
852.857422	7997.583984
851.085938	8104.463867
849.312500	7941.958496
847.539063	7981.130371
845.765625	8130.229004
843.992188	8079.151367
842.216797	8077.407715
840.441406	8016.502441
838.667969	8117.579590
836.892578	8110.195313
835.115234	8057.766602
833.339844	8081.360352
831.562500	8072.580078
829.785156	7952.665039
828.007813	8074.719727
826.230469	8068.757324
824.451172	8165.427246
822.673828	8159.446289
820.894531	8232.164063
819.115234	8228.980469
817.335938	8196.299805
815.554688	8162.227539
813.775391	8174.504395
811.994141	7973.402344
810.212891	8186.409180
808.431641	8059.758301
806.648438	8185.675781
804.867188	8174.088379
803.083984	8126.046387
801.300781	8281.307617
799.515625	8180.000000
797.732422	8286.133789
795.947266	8331.977539
794.164063	8205.509766
792.378906	8294.762695
790.591797	8096.949707
788.806641	8312.170898
787.019531	8195.611328
785.234375	8346.352539
783.447266	8281.594727
781.658203	8304.977539
779.871094	8248.645508
778.082031	8161.581055
776.294922	8273.028320
774.505859	8244.686523
772.716797	8293.196289
770.925781	8333.304688
769.136719	8292.397461
767.345703	8301.771484
765.554688	8270.659180
763.763672	8390.283203
761.970703	8290.795898
760.179688	8337.824219
758.386719	8383.436523
756.593750	8303.534180
754.800781	8297.551758
753.005859	8380.773438
751.212891	8320.431641
749.417969	8388.286133
747.623047	8438.003906
745.828125	8366.545898
744.033203	8425.991211
742.236328	8310.022461
740.439453	8291.520508
738.642578	8387.117188
736.845703	8269.839844
735.048828	8288.907227
733.250000	8410.859375
731.451172	8300.602539
729.652344	8307.139648
727.853516	8278.935547
726.054688	8391.056641
724.253906	8312.843750
722.455078	8306.873047
720.654297	8310.623047
718.853516	8433.742188
717.050781	8233.464844
715.250000	8371.807617
713.447266	8288.148438
711.644531	8286.348633
709.841797	8288.708008
708.037109	8268.886719
706.234375	8283.720703
704.429688	8437.112305
702.625000	8435.278320
700.820313	8365.579102
699.013672	8365.145508
697.208984	8395.169922
695.402344	8466.703125
693.595703	8504.994141
691.789063	8273.479492
689.982422	8385.105469
688.173828	8319.666992
686.365234	8292.970703
684.556641	8256.609375
682.748047	8322.532227
680.939453	8388.426758
679.128906	8440.476563
677.318359	8416.542969
675.507813	8405.045898
673.697266	8423.924805
671.886719	8416.570313
670.074219	8289.166016
668.261719	8274.945313
666.449219	8260.730469
664.636719	8449.236328
662.824219	8395.005859
661.009766	8350.446289
659.195313	8407.887695
657.380859	8490.103516
655.566406	8390.450195
653.751953	8317.007813
651.935547	8455.641602
650.119141	8387.721680
648.302734	8471.225586
646.486328	8331.778320
644.669922	8375.361328
642.851563	8500.074219
641.033203	8518.848633
639.214844	8342.389648
637.396484	8324.077148
635.578125	8374.483398
633.757813	8391.891602
631.937500	8332.370117
630.117188	8511.831055
628.296875	8372.672852
626.474609	8328.292969
624.654297	8329.220703
622.832031	8352.101563
621.009766	8328.331055
619.185547	8270.281250
617.363281	8401.485352
615.539063	8369.491211
613.714844	8323.804688
611.890625	8278.137695
610.066406	8247.560547
608.242188	8456.698242
606.416016	8374.055664
604.589844	8364.012695
602.763672	8375.874023
600.937500	8183.819336
599.109375	8361.270508
597.281250	8399.114258
595.453125	8267.354492
593.625000	8331.180664
591.796875	8307.487305
589.966797	8412.278320
588.138672	8310.689453
586.308594	8389.475586
584.478516	8313.886719
582.646484	8366.691406
580.816406	8295.235352
578.984375	8390.333008
577.152344	8222.011719
575.320313	8446.696289
573.486328	8338.453125
571.654297	8344.811523
569.820313	8382.527344
567.986328	8420.224609
566.152344	8408.842773
564.316406	8443.792969
562.482422	8243.054688
560.646484	8200.392578
558.810547	8318.424805
556.974609	8474.522461
555.136719	8271.229492
553.300781	8325.210938
551.462891	8274.411133
549.625000	8143.382813
547.785156	8171.517090
545.947266	8209.156250
544.107422	8176.094727
542.267578	8289.818359
540.427734	8271.698242
538.587891	8204.683594
536.748047	8168.933594
534.906250	8161.712891
533.064453	8204.721680
531.222656	8190.709473
529.378906	8216.052734
527.537109	8149.134766
525.693359	8200.245117
523.849609	8084.542480
522.005859	8111.239746
520.162109	8028.136719
518.316406	8003.339355
516.470703	8040.874023
514.625000	8108.191895
512.779297	7985.887207
510.933594	8038.292969
509.085938	8048.712402
507.238281	7988.752930
505.390625	8028.944336
503.542969	7860.795410
501.695313	7998.372559
499.845703	7991.208496
497.996094	8004.325195
496.146484	7901.201172
494.296875	7819.742676
492.447266	7958.525879
490.595703	7804.153320
488.744141	7928.024414
486.892578	7901.981934
485.041016	7784.165527
483.187500	7868.822754
481.333984	7917.014160
479.480469	7841.086426
477.626953	7842.060547
475.773438	7783.709473
473.917969	7792.783203
472.064453	7869.237305
470.208984	7821.695801
468.351563	7762.051270
466.496094	7698.391602
464.638672	7809.806641
462.783203	7887.516602
460.925781	7700.044434
459.066406	7788.508789
457.208984	7765.270508
455.349609	7564.497070
453.490234	7638.138672
451.630859	7662.002930
449.771484	7586.389160
447.912109	7642.505859
446.050781	7650.229004
444.189453	7563.919922
442.328125	7570.313477
440.466797	7615.640625
438.603516	7581.747559
436.740234	7614.972656
434.876953	7621.346680
433.013672	7557.960449
431.150391	7569.708008
429.285156	7617.654297
427.419922	7603.911133
425.554688	7516.456543
423.689453	7548.301270
421.824219	7392.570801
419.957031	7482.022949
418.089844	7351.818359
416.222656	7394.379883
414.355469	7356.609863
412.488281	7495.503906
410.619141	7307.876953
408.750000	7394.551270
406.880859	7213.714844
405.011719	7399.313477
403.140625	7294.750977
401.269531	7235.673828
399.398438	7343.645020
397.527344	7205.765137
395.656250	7257.599121
393.783203	7239.974609
391.910156	7285.102539
390.037109	7199.408691
388.164063	7213.833008
386.291016	7169.549316
384.416016	7191.976074
382.541016	7074.371582
380.666016	7143.471680
378.791016	7159.222656
376.914063	7153.644531
375.039063	7145.403320
373.162109	7023.939941
371.285156	7167.551270
369.406250	7096.731934
367.529297	7187.015625
365.650391	7005.758789
363.771484	7045.459473
361.892578	7131.702148
360.011719	7006.436523
358.132813	7020.844727
356.251953	6898.316895
354.371094	6896.791992
352.490234	6892.610352
350.607422	6812.703125
348.724609	6889.562988
346.841797	6801.723633
344.958984	6848.015137
343.076172	6778.805664
341.193359	6797.212402
339.308594	6693.547852
337.423828	6791.552734
335.539063	6695.891602
333.652344	6702.365723
331.767578	6708.835938
329.880859	6548.315430
327.994141	6594.566406
326.107422	6677.889160
324.218750	6592.972168
322.330078	6610.050781
320.443359	6567.548340
318.552734	6488.005371
316.664063	6520.973145
314.775391	6487.778320
312.884766	6461.210938
310.994141	6385.727539
309.103516	6455.705078
307.210938	6463.527344
305.320313	6377.520020
303.427734	6424.991699
301.535156	6345.634277
299.642578	6371.960938
297.748047	6259.642090
295.853516	6229.213867
293.960938	6357.167480
292.064453	6255.480469
290.169922	6269.923340
288.275391	6198.633789
286.378906	6218.356445
284.482422	6273.663086
282.585938	6197.146484
280.687500	6114.075684
278.791016	6074.514648
276.892578	6045.507813
274.994141	5982.276367
273.095703	6081.004883
271.195313	6117.825684
269.294922	6005.929688
267.396484	5921.710938
265.494141	5930.919434
263.593750	5986.150391
261.691406	5911.194336
259.791016	5946.687500
257.888672	5941.424316
255.986328	5896.746582
254.082031	5789.035645
252.177734	5867.861328
250.275391	5680.109863
248.371094	5886.258301
246.464844	5875.763672
244.560547	5782.608398
242.654297	5770.828613
240.748047	5730.199219
238.841797	5801.045410
236.935547	5685.701172
235.027344	5635.941895
233.119141	5717.243652
231.210938	5668.809082
229.302734	5583.720703
227.392578	5595.574219
225.484375	5610.040527
223.574219	5548.581543
221.664063	5661.199707
219.751953	5504.246094
217.841797	5432.386230
215.929688	5428.562012
214.017578	5490.112793
212.105469	5445.753906
210.193359	5379.197266
208.279297	5444.636719
206.365234	5427.749023
204.451172	5328.588867
202.537109	5486.702148
200.621094	5369.295898
198.705078	5296.316895
196.789063	5338.197754
194.873047	5273.084473
192.957031	5247.128906
191.039063	5188.584473
189.123047	5339.961426
187.203125	5229.285156
185.285156	5260.697754
183.367188	5183.961426
181.447266	5113.771484
179.527344	5198.580078
177.607422	5091.962891
175.687500	4968.470703
173.765625	5183.391602
171.843750	5108.074219
169.921875	4982.058105
168.000000	5048.573730
166.078125	4910.924805
164.154297	4996.924805
162.230469	4923.030273
160.306641	4881.652344
158.382813	4966.300781
156.457031	4867.785156
154.531250	4869.295898
152.605469	4982.449707
150.679688	4848.951660
148.753906	4750.548828
146.826172	4746.893555
144.898438	4776.962402
142.970703	4766.818848
141.042969	4866.877441
139.113281	4812.647949
137.183594	4641.813965
135.253906	4671.871094
133.324219	4587.928711
131.394531	4597.263672
129.462891	4544.448242
127.531250	4544.727051
125.599609	4484.181152
123.667969	4467.652832
121.734375	4220.878418
119.802734	4146.218750
117.869141	3912.555420
115.935547	3848.338867
114.000000	3759.595215
112.066406	3676.059326
110.130859	3608.062500
108.195313	3688.622314
106.257813	3544.468994
104.322266	3523.020752
102.384766	3540.302002
100.447266	3518.863770
