#Wave		#Intensity
3501.405273	6354.263184
3500.167969	6174.501953
3498.929688	6151.125488
3497.691406	6293.318359
3496.453125	6271.946777
3495.213867	6173.888672
3493.975586	6277.656250
3492.736328	6290.596191
3491.497070	6303.531250
3490.256836	6393.097168
3489.017578	6339.467285
3487.777344	6237.473145
3486.537109	6216.142090
3485.296875	6204.894531
3484.055664	6179.546875
3482.814453	6087.730957
3481.573242	6394.739746
3480.332031	6198.204590
3479.089844	6176.902832
3477.848633	6304.567383
3476.606445	6013.568359
3475.363281	6187.495117
3474.121094	6363.368164
3472.877930	6321.939941
3471.634766	6358.957520
3470.391602	6371.833008
3469.147461	6398.775879
3467.904297	6385.509277
3466.660156	6362.199707
3465.416016	6393.146484
3464.170898	6237.264160
3462.926758	6242.112793
3461.681641	6301.175781
3460.436523	6277.902832
3459.190430	6210.478516
3457.945313	6175.189453
3456.699219	6272.342773
3455.453125	6313.287598
3454.206055	6253.929199
3452.959961	6332.963867
3451.712891	6169.363770
3450.465820	6226.333008
3449.218750	6245.199707
3447.970703	6234.001465
3446.722656	6188.747559
3445.474609	6211.616211
3444.226563	6242.486816
3442.978516	6323.403809
3441.729492	6114.005371
3440.480469	6212.929688
3439.231445	6157.723633
3437.981445	6122.546387
3436.731445	6125.390625
3435.481445	6106.232422
3434.231445	6169.068848
3432.981445	6063.938965
3431.730469	6268.684082
3430.479492	6137.592773
3429.228516	6252.327637
3427.977539	6053.362793
3426.725586	6068.197754
3425.473633	6075.039063
3424.221680	6061.910645
3422.969727	6190.523926
3421.716797	6131.471680
3420.463867	6202.151855
3419.210938	6083.264160
3417.958008	6104.056641
3416.704102	6148.773926
3415.450195	5982.105957
3414.196289	5974.993652
3412.942383	6137.312500
3411.687500	6000.633789
3410.433594	5907.842285
3409.178711	5976.449707
3407.922852	5975.319336
3406.667969	6151.422852
3405.412109	5947.174805
3404.156250	5997.806152
3402.900391	5986.719727
3401.643555	5957.728027
3400.386719	5980.474609
3399.129883	5913.700684
3397.873047	6047.816895
3396.616211	5853.798828
3395.358398	6023.659180
3394.100586	5909.223633
3392.842773	5776.945801
3391.583984	5944.736816
3390.326172	6044.922363
3389.067383	5841.192871
3387.808594	5766.613770
3386.548828	5807.214355
3385.289063	5720.759277
3384.030273	5799.060547
3382.769531	5752.324219
3381.509766	5834.556641
3380.249023	5762.045410
3378.988281	5802.599121
3377.727539	5747.965332
3376.466797	5750.840820
3375.205078	5640.741211
3373.943359	5768.477051
3372.681641	5682.190430
3371.419922	5689.036621
3370.157227	5701.821289
3368.894531	5690.839844
3367.631836	5660.064941
3366.369141	5567.940918
3365.105469	5582.716797
3363.842773	5652.888184
3362.578125	5649.837891
3361.314453	5741.725586
3360.050781	5671.424805
3358.786133	5676.280273
3357.521484	5600.087402
3356.255859	5496.254395
3354.991211	5594.010742
3353.725586	5620.607422
3352.459961	5597.813477
3351.194336	5434.812988
3349.927734	5599.638184
3348.661133	5513.688477
3347.394531	5670.540527
3346.127930	5499.755371
3344.860352	5492.792480
3343.593750	5473.996094
3342.326172	5603.124512
3341.057617	5546.848145
3339.790039	5480.735840
3338.521484	5507.291016
3337.252930	5346.615234
3335.984375	5426.384766
3334.714844	5405.653809
3333.446289	5416.444824
3332.176758	5360.277344
3330.906250	5209.625000
3329.636719	5411.390137
3328.366211	5235.199219
3327.095703	5415.236816
3325.825195	5390.599609
3324.554688	5397.442871
3323.283203	5307.919434
3322.011719	5363.931641
3320.740234	5368.809570
3319.467773	5373.685547
3318.195313	5305.849609
3316.922852	5312.700195
3315.650391	5333.298340
3314.377930	5420.664551
3313.104492	5152.579102
3311.831055	5241.909668
3310.557617	5246.801270
3309.283203	5255.615723
3308.009766	5299.745605
3306.735352	5314.431641
3305.460938	5266.347168
3304.185547	5173.177246
3302.911133	5201.602539
3301.635742	5245.699219
3300.359375	5107.507813
3299.083984	5302.489258
3297.807617	5199.604004
3296.531250	5249.542480
3295.254883	5279.877930
3293.978516	5147.684570
3292.701172	5119.297363
3291.423828	5098.749512
3290.146484	5007.760742
3288.869141	5161.374512
3287.590820	5189.734375
3286.312500	5147.674316
3285.034180	5177.980957
3283.754883	5133.983398
3282.476563	5213.147949
3281.197266	5204.337402
3279.917969	5091.971680
3278.637695	5178.912109
3277.357422	5158.393555
3276.078125	5048.052734
3274.796875	5144.713379
3273.516602	5075.410156
3272.235352	5195.448730
3270.954102	5223.729004
3269.672852	4982.764648
3268.391602	5104.702148
3267.109375	5004.268066
3265.827148	5093.006836
3264.544922	4994.562500
3263.262695	5096.912598
3261.979492	4774.399414
3260.696289	5083.278809
3259.413086	5095.945801
3258.128906	4968.378418
3256.845703	5095.949219
3255.561523	4985.952148
3254.277344	4936.338379
3252.992188	5030.757324
3251.707031	4986.991211
3250.422852	4956.858887
3249.136719	4994.813477
3247.851563	4953.022949
3246.565430	5031.792969
3245.279297	4984.179199
3243.993164	4907.429688
3242.707031	4960.901855
3241.419922	5043.495117
3240.132813	4871.599121
3238.845703	4993.018555
3237.557617	4912.456055
3236.270508	4841.631348
3234.982422	5032.859863
3233.694336	5014.433594
3232.405273	4889.303223
3231.116211	4832.114746
3229.827148	4871.920410
3228.538086	4803.121582
3227.249023	4757.613770
3225.958984	4956.354492
3224.668945	4784.865723
3223.378906	4822.703613
3222.087891	4848.903809
3220.797852	4875.093262
3219.506836	4808.320801
3218.215820	4776.423828
3216.923828	4773.575195
3215.631836	4863.625977
3214.339844	4789.166016
3213.047852	4797.923340
3211.755859	4682.883789
3210.462891	4720.666992
3209.169922	4690.761230
3207.876953	4772.990723
3206.583008	4632.916504
3205.289063	4790.489746
3203.995117	4650.465332
3202.701172	4815.701172
3201.407227	4700.832031
3200.112305	4663.244629
3198.817383	4542.656738
3197.521484	4696.204590
3196.226563	4664.428711
3194.930664	4682.830566
3193.634766	4710.871094
3192.338867	4601.960449
3191.041992	4705.211426
3189.745117	4632.975098
3188.448242	4394.990234
3187.151367	4552.184082
3185.854492	4599.484863
3184.556641	4467.601074
3183.258789	4507.194824
3181.959961	4502.480469
3180.662109	4476.587891
3179.363281	4602.783691
3178.064453	4594.203613
3176.764648	4366.254883
3175.465820	4301.928711
3174.166016	4568.480957
3172.866211	4525.295410
3171.565430	4387.907227
3170.265625	4419.748535
3168.964844	4340.095703
3167.664063	4485.315430
3166.362305	4382.624023
3165.061523	4437.493164
3163.759766	4427.039551
3162.458008	4322.497070
3161.155273	4363.905762
3159.853516	4299.725098
3158.550781	4247.083984
3157.248047	4407.447754
3155.944336	4306.844727
3154.640625	4378.904785
3153.337891	4270.675293
3152.033203	4319.706055
3150.729492	4313.126953
3149.424805	4421.544434
3148.120117	4298.059082
3146.815430	4285.739746
3145.509766	4283.001953
3144.205078	4310.906738
3142.899414	4325.397461
3141.592773	4217.362793
3140.287109	4270.145508
3138.980469	4240.621582
3137.673828	4237.894531
3136.367188	4244.732910
3135.059570	4255.393555
3133.752930	4185.738281
3132.445313	4267.142578
3131.136719	4134.434082
3129.829102	4047.642334
3128.520508	4247.488770
3127.211914	4154.977051
3125.902344	4091.150146
3124.593750	4109.460449
3123.284180	4198.405273
3121.974609	4153.694824
3120.664063	4143.354492
3119.354492	4134.926270
3118.043945	4151.301758
3116.733398	4037.967285
3115.421875	4233.616211
3114.111328	4011.629150
3112.799805	4054.703125
3111.488281	4063.453613
3110.175781	4032.183594
3108.864258	4128.573730
3107.551758	4034.443115
3106.238281	3974.629150
3104.925781	3989.097900
3103.612305	4032.116943
3102.298828	3981.854004
3100.985352	4036.275391
3099.671875	4073.552002
3098.357422	4049.941406
3097.042969	3997.811035
3095.727539	3939.995850
3094.413086	4020.988525
3093.097656	4001.206787
3091.782227	3846.500977
3090.466797	4083.270996
3089.150391	3979.900879
3087.833984	3912.657715
3086.517578	3921.399902
3085.201172	3865.585205
3083.883789	3902.806396
3082.566406	3867.893066
3081.249023	3895.611572
3079.931641	3919.524658
3078.613281	3848.588867
3077.294922	3899.051270
3075.976563	3896.404541
3074.658203	3793.286621
3073.338867	3769.812256
3072.019531	3780.456055
3070.700195	3902.876953
3069.379883	3784.682861
3068.060547	3842.663818
3066.740234	3857.071533
3065.418945	3729.488037
3064.098633	3760.946777
3062.777344	3786.715820
3061.456055	3789.770264
3060.134766	3751.206299
3058.812500	3754.266113
3057.491211	3745.978760
3056.167969	3779.287354
3054.845703	3765.327393
3053.523438	3755.152344
3052.200195	3862.129639
3050.876953	3827.380615
3049.552734	3775.645996
3048.229492	3805.132324
3046.905273	3638.251221
3045.580078	3754.585449
3044.255859	3638.735352
3042.930664	3770.119873
3041.605469	3699.589111
3040.280273	3738.486084
3038.955078	3658.558838
3037.628906	3755.898682
3036.302734	3660.917480
3034.976563	3769.527588
3033.649414	3716.036865
3032.322266	3636.190186
3030.995117	3648.674316
3029.667969	3787.334961
3028.339844	3675.510010
3027.012695	3693.626465
3025.684570	3632.682373
3024.355469	3663.972412
3023.027344	3629.398193
3021.698242	3662.557861
3020.369141	3663.731201
3019.039063	3663.023682
3017.708984	3575.834473
3016.378906	3620.256104
3015.048828	3689.091553
3013.718750	3712.805176
3012.387695	3779.717041
3011.056641	3555.478271
3009.725586	3633.661377
3008.393555	3687.406738
3007.062500	3664.168701
3005.730469	3629.678467
3004.397461	3537.032959
3003.065430	3587.002686
3001.732422	3601.314697
3000.399414	3589.366699
2999.065430	3592.422852
2997.732422	3572.982178
2996.398438	3592.907959
2995.064453	3543.492676
2993.729492	3647.723877
2992.395508	3534.629639
2991.060547	3511.472656
2989.724609	3613.776855
2988.389648	3656.135254
2987.053711	3604.892090
2985.717773	3594.838135
2984.381836	3579.174805
2983.044922	3599.059082
2981.708984	3559.087402
2980.372070	3584.577148
2979.034180	3533.406250
2977.697266	3489.731445
2976.359375	3524.563477
2975.021484	3639.724609
2973.682617	3541.879883
2972.344727	3660.728271
2971.005859	3523.702393
2969.666016	3509.951172
2968.327148	3591.403564
2966.987305	3631.766113
2965.647461	3502.314941
2964.307617	3568.796387
2962.967773	3532.666504
2961.626953	3492.820801
2960.286133	3454.854980
2958.944336	3500.788330
2957.603516	3559.750000
2956.261719	3426.760010
2954.919922	3582.589844
2953.577148	3481.312012
2952.235352	3508.571777
2950.892578	3476.238770
2949.549805	3507.211914
2948.206055	3430.222168
2946.863281	3531.904297
2945.519531	3427.031982
2944.174805	3411.486572
2942.831055	3501.953857
2941.486328	3512.431396
2940.141602	3457.837646
2938.796875	3514.786621
2937.451172	3556.846680
2936.105469	3546.866943
2934.759766	3481.162598
2933.414063	3441.484863
2932.067383	3542.946289
2930.720703	3475.423828
2929.374023	3446.906982
2928.027344	3494.489258
2926.679688	3393.616699
2925.332031	3489.422852
2923.984375	3470.198242
2922.635742	3467.670410
2921.287109	3476.267334
2919.938477	3529.348389
2918.589844	3491.597412
2917.240234	3422.361084
2915.890625	3505.062256
2914.541016	3458.076416
2913.191406	3361.108643
2911.840820	3456.733643
2910.490234	3481.978027
2909.139648	3431.330811
2907.789063	3306.686768
2906.437500	3457.748779
2905.085938	3499.619873
2903.734375	3419.418701
2902.381836	3433.546143
2901.029297	3510.520752
2899.676758	3310.226807
2898.324219	3389.043213
2896.970703	3392.079590
2895.617188	3413.586426
2894.263672	3344.590576
2892.910156	3454.728027
2891.555664	3376.520020
2890.201172	3366.635010
2888.846680	3419.496338
2887.491211	3474.182373
2886.135742	3399.719971
2884.780273	3411.968994
2883.424805	3505.346924
2882.068359	3475.167480
2880.712891	3413.665039
2879.355469	3295.056885
2877.999023	3303.628418
2876.641602	3384.040527
2875.284180	3434.952637
2873.926758	3535.563232
2872.569336	3378.383301
2871.210938	3451.354736
2869.852539	3367.866699
2868.494141	3429.771240
2867.134766	3465.896729
2865.775391	3382.453857
2864.416016	3429.607666
2863.056641	3379.298340
2861.696289	3404.375488
2860.335938	3379.820313
2858.975586	3415.912109
2857.614258	3435.455566
2856.253906	3429.276123
2854.892578	3410.243896
2853.530273	3372.858154
2852.168945	3390.558105
2850.806641	3369.708740
2849.444336	3504.841797
2848.082031	3320.695068
2846.718750	3323.716553
2845.355469	3521.132568
2843.992188	3342.590332
2842.627930	3362.104248
2841.264648	3343.120361
2839.900391	3340.636230
2838.535156	3405.941895
2837.170898	3379.632813
2835.805664	3364.322510
2834.440430	3446.064453
2833.075195	3467.361084
2831.708984	3426.416992
2830.342773	3332.419189
2828.976563	3381.169434
2827.609375	3420.753906
2826.243164	3317.666992
2824.875977	3386.505371
2823.507813	3479.083252
2822.140625	3399.806885
2820.772461	3375.385986
2819.404297	3330.875977
2818.035156	3458.100586
2816.666992	3492.127930
2815.297852	3401.968750
2813.928711	3366.616211
2812.558594	3431.671875
2811.189453	3336.101807
2809.819336	3333.625732
2808.448242	3371.284912
2807.078125	3345.091553
2805.707031	3342.614746
2804.335938	3323.729736
2802.963867	3344.955078
2801.592773	3389.864258
2800.220703	3307.205322
2798.848633	3266.479736
2797.475586	3304.091797
2796.102539	3330.762451
2794.729492	3375.629883
2793.356445	3376.790771
2791.982422	3323.350342
2790.609375	3384.569336
2789.234375	3363.895508
2787.860352	3374.151611
2786.485352	3418.956787
2785.110352	3392.833252
2783.735352	3306.729248
2782.360352	3393.323975
2780.984375	3383.574707
2779.608398	3284.804932
2778.231445	3276.896729
2776.855469	3383.406006
2775.478516	3275.614990
2774.101563	3363.928711
2772.723633	3454.022705
2771.346680	3380.759521
2769.968750	3331.111084
2768.589844	3368.552979
2767.211914	3347.943848
2765.833008	3321.903076
2764.454102	3341.194824
2763.075195	3316.977783
2761.695313	3441.370361
2760.315430	3304.808350
2758.935547	3318.653320
2757.554688	3328.870361
2756.174805	3328.218750
2754.793945	3285.927002
2753.412109	3366.737061
2752.031250	3290.069580
2750.649414	3329.231201
2749.267578	3357.523193
2747.884766	3279.093506
2746.502930	3412.265381
2745.120117	3228.994141
2743.736328	3378.391846
2742.353516	3300.018555
2740.969727	3326.475342
2739.585938	3324.016846
2738.202148	3354.070557
2736.817383	3362.442383
2735.432617	3370.810547
2734.047852	3301.555420
2732.662109	3391.146240
2731.277344	3300.261230
2729.891602	3351.931641
2728.504883	3333.237549
2727.119141	3374.060791
2725.732422	3443.715820
2724.345703	3343.895264
2722.958008	3375.680664
2721.571289	3329.970215
2720.183594	3368.951904
2718.794922	3343.073730
2717.407227	3329.811768
2716.018555	3383.174072
2714.629883	3404.112305
2713.241211	3340.450684
2711.851563	3397.377930
2710.461914	3348.135254
2709.072266	3360.069580
2707.681641	3354.014648
2706.291016	3448.652832
2704.900391	3359.888916
2703.509766	3359.229248
2702.119141	3371.148438
2700.727539	3336.350586
2699.334961	3434.490967
2697.943359	3374.550781
2696.550781	3352.341064
2695.158203	3371.430176
2693.765625	3255.895996
2692.372070	3395.229004
2690.979492	3403.532715
2689.584961	3467.441406
2688.191406	3411.162842
2686.796875	3433.802979
2685.402344	3393.687500
2684.007813	3283.683838
2682.613281	3374.433105
2681.217773	3300.310303
2679.822266	3475.213379
2678.425781	3411.845459
2677.030273	3384.315186
2675.633789	3365.746826
2674.237305	3309.596924
2672.839844	3341.158691
2671.442383	3369.129395
2670.044922	3323.744629
2668.647461	3391.055176
2667.249023	3359.989014
2665.850586	3395.084717
2664.452148	3360.454590
2663.053711	3463.446777
2661.654297	3355.558838
2660.254883	3481.734619
2658.855469	3391.745850
2657.455078	3446.435791
2656.054688	3345.776855
2654.654297	3468.284424
2653.252930	3378.368408
2651.852539	3361.644531
2650.451172	3476.940186
2649.048828	3360.321045
2647.647461	3423.856689
2646.245117	3398.221924
2644.842773	3402.900391
2643.439453	3396.883545
2642.037109	3494.216553
2640.633789	3391.982422
2639.229492	3387.751953
2637.826172	3428.042969
2636.421875	3382.856445
2635.017578	3437.373047
2633.613281	3388.642334
2632.208008	3402.209961
2630.802734	3339.272705
2629.397461	3507.590820
2627.991211	3448.214111
2626.584961	3387.082520
2625.178711	3416.634766
2623.772461	3280.886719
2622.365234	3392.187500
2620.958008	3407.507813
2619.550781	3500.977051
2618.142578	3388.405273
2616.735352	3421.472412
2615.326172	3562.812988
2613.917969	3398.824707
2612.508789	3456.712402
2611.099609	3507.480713
2609.690430	3485.503174
2608.281250	3499.002930
2606.871094	3406.111816
2605.460938	3435.576172
2604.049805	3426.036377
2602.639648	3420.043945
2601.228516	3492.008301
2599.817383	3447.035400
2598.405273	3472.919922
2596.993164	3463.381104
2595.581055	3365.331055
2594.168945	3417.764893
2592.755859	3503.800293
2591.342773	3473.031250
2589.929688	3507.723145
2588.516602	3360.240967
2587.102539	3428.537109
2585.688477	3505.645020
2584.273438	3589.792480
2582.859375	3431.806885
2581.444336	3452.330566
2580.028320	3495.809570
2578.613281	3413.878174
2577.197266	3476.770508
2575.781250	3511.391602
2574.365234	3482.456543
2572.948242	3372.356445
2571.531250	3486.373047
2570.114258	3418.651367
2568.696289	3467.358154
2567.278320	3491.358887
2565.860352	3450.120361
2564.442383	3560.482666
2563.023438	3491.050293
2561.604492	3513.264648
2560.185547	3583.032471
2558.766602	3434.381348
2557.346680	3590.419434
2555.926758	3482.317139
2554.505859	3455.225586
2553.084961	3472.140137
2551.665039	3578.781250
2550.243164	3514.744385
2548.822266	3547.465576
2547.400391	3520.386963
2545.978516	3514.415771
2544.555664	3506.689209
2543.133789	3539.385254
2541.710938	3572.068359
2540.287109	3509.876709
2538.864258	3551.334229
2537.440430	3599.798828
2536.016602	3470.923340
2534.591797	3429.863770
2533.167969	3492.363037
2531.743164	3579.401611
2530.317383	3489.225098
2528.892578	3381.545166
2527.466797	3547.463867
2526.041016	3566.046387
2524.614258	3610.914307
2523.187500	3585.663574
2521.760742	3527.131104
2520.333984	3529.935547
2518.906250	3499.460693
2517.479492	3512.775879
2516.050781	3610.123779
2514.623047	3558.645020
2513.194336	3545.688965
2511.765625	3537.986816
2510.336914	3551.280273
2508.907227	3608.294678
2507.477539	3509.651611
2506.047852	3547.419434
2504.617188	3476.795166
2503.186523	3589.703613
2501.755859	3606.464600
2500.325195	3527.135254
2498.893555	3522.942139
2497.461914	3560.661133
2496.030273	3525.035889
2494.597656	3583.686279
2493.166016	3577.739258
2491.732422	3606.692139
2490.299805	3616.443604
2488.866211	3551.190186
2487.432617	3533.046631
2485.999023	3537.575439
2484.564453	3714.675537
2483.130859	3522.228027
2481.695313	3648.728760
2480.260742	3593.998291
2478.825195	3577.608398
2477.389648	3716.212158
2475.954102	3661.500244
2474.517578	3563.291504
2473.081055	3644.381836
2471.644531	3610.596924
2470.207031	3576.824951
2468.770508	3617.858643
2467.332031	3591.054443
2465.894531	3553.828613
2464.456055	3662.636230
2463.017578	3581.961426
2461.579102	3688.982178
2460.140625	3686.511475
2458.701172	3616.301025
2457.261719	3754.509033
2455.821289	3732.927490
2454.380859	3695.731201
2452.940430	3632.516113
2451.500000	3669.968262
2450.058594	3669.238037
2448.617188	3706.667480
2447.175781	3674.714844
2445.734375	3665.314697
2444.291992	3668.052246
2442.849609	3663.855957
2441.407227	3562.624756
2439.963867	3759.414795
2438.520508	3722.292236
2437.077148	3678.257324
2435.632813	3840.278076
2434.188477	3649.095703
2432.744141	3717.598145
2431.299805	3746.274414
2429.854492	3553.494385
2428.409180	3699.810547
2426.963867	3711.178955
2425.517578	3743.290771
2424.071289	3650.926270
2422.625000	3847.226807
2421.177734	3753.149902
2419.730469	3721.304932
2418.283203	3727.472412
2416.835938	3657.652344
2415.387695	3843.395264
2413.939453	3815.009277
2412.491211	3726.227783
2411.041992	3694.425049
2409.593750	3735.093750
2408.143555	3803.343994
2406.693359	3730.155518
2405.244141	3715.618164
2403.794922	3759.697021
2402.343750	3852.016113
2400.892578	3653.085205
2399.441406	3800.518311
2397.990234	3798.037842
2396.539063	3716.340332
2395.085938	3794.800781
2393.634766	3797.486572
2392.181641	3788.123291
2390.728516	3715.095947
2389.275391	3769.407715
2387.822266	3883.899414
2386.369141	3874.525635
2384.914063	3868.594238
2383.460938	3752.646729
2382.005859	3800.020996
2380.550781	3751.148682
2379.095703	3813.965820
2377.640625	3825.227783
2376.183594	3800.421387
2374.728516	3755.021240
2373.271484	3816.069824
2371.814453	3789.563477
2370.357422	3859.160156
2368.900391	3848.095703
2367.443359	3807.875977
2365.986328	3781.391357
2364.527344	3789.208496
2363.068359	3723.310547
2361.611328	3729.422119
2360.152344	3925.734619
2358.693359	3762.195557
2357.232422	3859.076660
2355.773438	3820.629639
2354.312500	3775.349365
2352.851563	3945.777832
2351.392578	3874.817871
2349.931641	3865.487305
2348.468750	3928.014160
2347.007813	3822.890137
2345.546875	3846.067139
2344.083984	3910.269531
2342.621094	3849.656982
2341.158203	3746.341064
2339.695313	3866.913086
2338.232422	3777.302002
2336.769531	3785.086426
2335.304688	3779.205811
2333.839844	3886.014893
2332.375000	3837.439697
2330.910156	3898.113037
2329.445313	3771.061768
2327.980469	3869.256104
2326.515625	3863.364502
2325.048828	3828.484131
2323.582031	3911.262451
2322.115234	3893.432617
2320.648438	3901.174561
2319.181641	3941.288574
2317.714844	3833.170166
2316.246094	3958.445801
2314.779297	3800.981689
2313.310547	3909.187012
2311.841797	3864.144775
2310.373047	3948.466797
2308.904297	3838.774170
2307.433594	3878.834717
2305.964844	3835.534668
2304.494141	3882.381592
2303.023438	3791.491699
2301.552734	3834.928467
2300.082031	3920.836182
2298.611328	3865.675781
2297.138672	3837.718994
2295.667969	3940.558838
2294.195313	3910.899658
2292.722656	3888.043457
2291.250000	3904.238525
2289.777344	3983.221680
2288.302734	3956.970459
2286.830078	4017.249756
2285.355469	3889.233643
2283.880859	4042.770508
2282.408203	3869.022949
2280.931641	3915.709717
2279.457031	3972.546143
2277.982422	3792.138916
2276.505859	3871.000244
2275.029297	3961.685791
2273.554688	3940.569336
2272.078125	3973.639648
2270.599609	4010.082031
2269.123047	4090.511475
2267.646484	4037.236572
2266.167969	4055.034424
2264.689453	3918.910156
2263.210938	3982.382324
2261.732422	3961.293945
2260.253906	3955.427246
2258.775391	4001.952881
2257.294922	3985.941650
2255.814453	4005.412842
2254.333984	4053.588867
2252.853516	4013.935059
2251.373047	4001.310059
2249.892578	3882.347412
2248.412109	4045.267822
2246.929688	4030.956299
2245.447266	4065.572021
2243.964844	4005.722900
2242.482422	4122.957031
2241.000000	4115.384277
2239.517578	4052.189209
2238.033203	4048.003662
2236.548828	4058.983887
2235.066406	3960.461426
2233.582031	4077.562012
2232.095703	4066.638184
2230.611328	4042.250000
2229.126953	4007.772217
2227.640625	4042.306396
2226.154297	4075.144043
2224.667969	4050.772705
2223.181641	3964.181641
2221.695313	4042.416016
2220.208984	4028.152588
2218.720703	4106.342285
2217.234375	4108.876465
2215.746094	4134.932129
2214.257813	4063.545898
2212.769531	4074.484131
2211.279297	4058.551025
2209.791016	4111.456055
2208.300781	4063.630127
2206.812500	4101.409180
2205.322266	4157.628418
2203.832031	4076.271973
2202.341797	4067.064941
2200.849609	4091.397217
2199.359375	4025.190674
2197.867188	4264.065430
2196.375000	4201.201660
2194.882813	4193.653320
2193.390625	4162.655762
2191.898438	4163.491211
2190.404297	4085.627930
2188.912109	4242.169434
2187.417969	4092.349121
2185.923828	4118.298828
2184.429688	4137.544922
2182.935547	4118.310547
2181.439453	4241.238281
2179.945313	4185.204102
2178.449219	4177.672852
2176.953125	4220.286621
2175.458984	4209.408691
2173.960938	4145.071289
2172.464844	4119.179199
2170.968750	4238.591309
2169.470703	4256.103027
2167.972656	4221.856445
2166.474609	4135.882813
2164.976563	4178.434082
2163.478516	4094.172363
2161.980469	4223.452148
2160.480469	4222.599121
2158.982422	4110.033691
2157.482422	4234.229980
2155.982422	4198.374512
2154.482422	4179.196777
2152.980469	4238.328613
2151.480469	4300.768066
2149.978516	4201.644043
2148.476563	4274.055176
2146.974609	4271.526855
2145.472656	4254.020508
2143.970703	4281.448730
2142.468750	4328.829102
2140.964844	4296.351074
2139.462891	4252.245117
2137.958984	4251.385254
2136.455078	4258.837402
2134.949219	4361.018555
2133.445313	4391.708008
2131.941406	4350.948730
2130.435547	4242.105957
2128.929688	4335.903809
2127.423828	4328.385742
2125.917969	4337.469727
2124.412109	4285.144043
2122.906250	4329.077637
2121.398438	4193.826660
2119.890625	4355.522461
2118.382813	4386.148438
2116.875000	4352.102051
2115.367188	4323.041504
2113.859375	4342.053711
2112.349609	4390.883301
2110.841797	4446.318848
2109.332031	4448.730957
2107.822266	4330.259277
2106.312500	4349.249512
2104.800781	4378.163086
2103.291016	4395.480957
2101.779297	4445.882813
2100.269531	4360.615234
2098.757813	4511.892578
2097.246094	4398.534668
2095.732422	4422.442383
2094.220703	4254.602051
2092.707031	4309.927734
2091.195313	4348.708008
2089.681641	4402.339844
2088.167969	4403.099121
2086.654297	4400.555176
2085.138672	4511.924805
2083.625000	4477.998535
2082.109375	4333.520020
2080.593750	4326.041992
2079.078125	4440.634277
2077.562500	4327.585938
2076.046875	4478.407227
2074.531250	4334.073730
2073.013672	4334.842773
2071.496094	4510.288086
2069.978516	4520.906250
2068.460938	4528.225098
2066.943359	4453.196289
2065.425781	4676.224609
2063.906250	4438.219238
2062.386719	4412.629883
2060.869141	4591.100098
2059.349609	4504.616699
2057.828125	4500.412598
2056.308594	4471.541504
2054.789063	4546.267578
2053.267578	4542.056641
2051.746094	4458.957031
2050.224609	4625.659668
2048.703125	4491.646484
2047.181641	4487.449219
2045.658203	4511.170898
2044.136719	4383.829590
2042.613281	4427.260742
2041.089844	4472.315430
2039.566406	4599.395508
2038.042969	4577.133789
2036.517578	4456.467773
2034.994141	4440.803223
2033.468750	4557.948242
2031.943359	4566.856934
2030.417969	4490.540039
2028.892578	4620.710938
2027.367188	4637.791992
2025.839844	4533.662109
2024.314453	4586.779785
2022.787109	4688.991699
2021.259766	4503.069824
2019.732422	4536.521484
2018.203125	4596.138672
2016.675781	4564.122070
2015.146484	4622.073242
2013.619141	4593.334473
2012.089844	4636.541504
2010.560547	4602.907227
2009.029297	4654.265625
2007.500000	4581.427246
2005.968750	4596.830078
2004.439453	4582.828613
2002.908203	4650.477051
2001.376953	4687.079590
1999.843750	4628.997070
1998.312500	4680.275391
1996.781250	4532.481445
1995.248047	4644.113281
1993.714844	4661.107422
1992.181641	4524.821289
1990.648438	4543.462402
1989.115234	4563.725098
1987.580078	4621.459961
1986.044922	4561.865723
1984.511719	4608.174805
1982.976563	4721.235840
1981.441406	4708.875977
1979.904297	4680.241699
1978.369141	4809.494141
1976.832031	4725.523926
1975.294922	4657.857422
1973.759766	4671.546875
1972.220703	4773.048340
1970.683594	4791.585938
1969.146484	4658.936523
1967.607422	4648.234863
1966.068359	4653.786133
1964.531250	4714.571777
1962.992188	4549.559570
1961.451172	4642.819336
1959.912109	4713.310547
1958.371094	4691.246582
1956.832031	4815.255371
1955.291016	4723.406738
1953.750000	4717.576172
1952.208984	4702.015625
1950.666016	4795.109375
1949.125000	4698.475098
1947.582031	4647.266113
1946.039063	4741.934082
1944.496094	4650.229492
1942.953125	4702.738770
1941.410156	4643.471680
1939.865234	4819.026855
1938.322266	4717.666504
1936.777344	4732.889648
1935.232422	4782.089844
1933.687500	4755.225586
1932.142578	4662.048340
1930.595703	4727.405762
1929.050781	4711.886719
1927.503906	4667.274414
1925.957031	4692.181641
1924.410156	4818.885742
1922.863281	4800.128418
1921.314453	4792.686035
1919.767578	4641.511230
1918.218750	4701.919434
1916.669922	4762.303223
1915.121094	4695.154785
1913.572266	4761.969238
1912.021484	4693.234863
1910.472656	4739.052246
1908.921875	4823.555664
1907.371094	4751.625000
1905.820313	4837.702637
1904.269531	4796.420410
1902.718750	4917.902832
1901.166016	4733.237793
1899.615234	4838.576172
1898.062500	4845.637695
1896.509766	4696.521484
1894.957031	4824.337891
1893.402344	4820.131348
1891.849609	4849.716797
1890.294922	4739.330078
1888.740234	4904.024902
1887.185547	4888.548340
1885.630859	4898.801270
1884.076172	4910.657227
1882.519531	4779.477539
1880.964844	4820.273926
1879.408203	4761.455078
1877.851563	4861.664063
1876.294922	4830.158203
1874.736328	4920.678711
1873.179688	4922.880371
1871.621094	4961.991211
1870.064453	4925.676270
1868.505859	4980.811035
1866.947266	4896.392578
1865.386719	4882.561035
1863.828125	4918.432129
1862.267578	4960.699707
1860.708984	4892.377930
1859.148438	4958.665527
1857.587891	5013.712402
1856.025391	4964.639160
1854.464844	4920.389160
1852.902344	4938.589844
1851.341797	4854.350098
1849.779297	4939.764160
1848.216797	5031.541992
1846.652344	5036.907715
1845.089844	4959.112305
1843.525391	4969.286621
1841.962891	4937.894531
1840.398438	4887.336426
1838.833984	4993.391602
1837.267578	5022.719727
1835.703125	4953.007813
1834.136719	4905.680664
1832.572266	4987.694824
1831.005859	5005.825684
1829.439453	5036.715820
1827.873047	4959.093262
1826.304688	4985.193848
1824.738281	5097.410156
1823.169922	5038.957031
1821.601563	5023.573242
1820.033203	4968.346680
1818.464844	5008.759766
1816.896484	4969.491211
1815.326172	4950.947266
1813.755859	4977.004395
1812.185547	5031.712402
1810.615234	4982.918457
1809.044922	4994.627441
1807.474609	5033.383789
1805.902344	5095.988770
1804.332031	5072.671387
1802.759766	5076.399414
1801.187500	4987.903809
1799.615234	5098.156738
1798.041016	5062.141602
1796.468750	5115.127930
1794.894531	5080.712402
1793.320313	5073.313477
1791.746094	5035.744141
1790.171875	5104.567871
1788.597656	5040.020996
1787.021484	5038.983887
1785.445313	5187.101563
1783.871094	5114.644531
1782.294922	5085.041504
1780.716797	4980.919434
1779.140625	5082.947754
1777.564453	5091.412109
1775.986328	5041.234863
1774.408203	5122.588867
1772.830078	5102.523926
1771.251953	5188.583008
1769.673828	5070.335449
1768.093750	5070.874023
1766.513672	5082.492188
1764.935547	5113.095215
1763.355469	5086.726563
1761.773438	5077.768555
1760.193359	5035.602539
1758.613281	5091.487793
1757.031250	5156.835449
1755.449219	5206.350098
1753.867188	5105.722168
1752.285156	5172.605469
1750.701172	5067.286621
1749.119141	5078.875488
1747.535156	5166.248047
1745.951172	5147.817871
1744.367188	5132.551270
1742.783203	5106.245605
1741.199219	5266.109863
1739.613281	5162.498535
1738.029297	5150.394531
1736.443359	5234.470703
1734.857422	5175.066895
1733.271484	5207.094727
1731.683594	5176.082031
1730.097656	5176.588867
1728.509766	5191.270508
1726.921875	5309.875488
1725.333984	5269.419922
1723.746094	5306.108887
1722.158203	5369.535645
1720.568359	5151.298340
1718.978516	5357.879883
1717.390625	5256.117188
1715.800781	5272.328125
1714.208984	5279.099609
1712.619141	5205.707031
1711.027344	5361.776367
1709.437500	5357.526367
1707.845703	5284.162109
1706.253906	5399.285156
1704.662109	5343.213867
1703.068359	5340.539551
1701.476563	5399.076660
1699.882813	5333.624512
1698.289063	5343.503418
1696.695313	5467.880859
1695.101563	5327.180176
1693.505859	5311.967285
1691.912109	5397.084473
1690.316406	5485.299805
1688.720703	5357.246094
1687.125000	5437.600098
1685.529297	5397.318359
1683.933594	5418.125000
1682.335938	5420.134766
1680.738281	5431.535645
1679.140625	5489.879883
1677.542969	5344.797363
1675.945313	5423.470703
1674.347656	5486.471680
1672.748047	5374.315430
1671.148438	5473.256836
1669.548828	5500.257813
1667.949219	5381.916992
1666.349609	5429.235840
1664.748047	5470.286621
1663.148438	5448.851074
1661.546875	5419.617188
1659.945313	5554.308105
1658.343750	5579.690430
1656.742188	5472.424805
1655.138672	5514.974121
1653.537109	5665.129883
1651.933594	6211.326172
1650.330078	9186.429688
1648.726563	11047.306641
1647.121094	7181.520996
1645.517578	6542.741699
1643.912109	5522.555664
1642.306641	5490.260254
1640.701172	5559.195313
1639.095703	5487.983398
1637.490234	5612.925781
1635.884766	5518.388184
1634.277344	5537.470215
1632.669922	5606.322754
1631.062500	5597.383301
1629.455078	5586.892090
1627.845703	5509.556641
1626.238281	5569.030762
1624.628906	5516.594238
1623.019531	5440.874023
1621.410156	5686.723633
1619.800781	5547.325684
1618.191406	5626.913574
1616.580078	5676.973145
1614.968750	5497.310547
1613.359375	5578.409668
1611.746094	5606.727539
1610.134766	5586.950684
1608.523438	5638.515625
1606.910156	5525.713867
1605.298828	5761.731445
1603.685547	5701.643066
1602.070313	5561.006836
1600.457031	5708.568848
1598.843750	5732.163574
1597.228516	5656.644531
1595.613281	5737.521973
1593.998047	5703.824707
1592.382813	5705.733887
1590.767578	5757.152832
1589.152344	5593.533203
1587.535156	5697.536133
1585.917969	5662.334473
1584.300781	5757.003906
1582.683594	5749.624023
1581.066406	5736.065918
1579.447266	5663.805176
1577.828125	5730.590820
1576.210938	5706.233887
1574.591797	5735.926270
1572.970703	5706.946777
1571.351563	5750.516602
1569.730469	5698.399902
1568.111328	5726.525391
1566.490234	5751.553711
1564.869141	5785.824219
1563.248047	5824.705078
1561.625000	5710.968750
1560.003906	5806.868652
1558.380859	5730.161621
1556.757813	5812.152832
1555.134766	5741.636230
1553.511719	5852.847168
1551.886719	5743.863281
1550.263672	5875.036133
1548.638672	5803.024902
1547.013672	5800.277344
1545.388672	5805.221191
1543.761719	5756.336914
1542.136719	5915.044922
1540.509766	5833.875000
1538.882813	5831.122070
1537.255859	5871.395508
1535.628906	5819.473633
1534.001953	6024.080566
1532.373047	5924.542969
1530.746094	5811.228516
1529.117188	5757.826172
1527.488281	5770.437500
1525.859375	5841.349609
1524.228516	5889.220703
1522.599609	5929.402832
1520.968750	5963.434570
1519.337891	5926.929199
1517.707031	5990.068848
1516.076172	5962.767090
1514.443359	5970.715820
1512.810547	5914.324219
1511.179688	6003.447754
1509.546875	5873.576172
1507.914063	5831.017090
1506.279297	5915.509766
1504.646484	5950.999512
1503.011719	5911.509766
1501.376953	6044.877441
1499.742188	5971.740234
1498.107422	5890.988281
1496.472656	6111.407227
1494.835938	5885.470703
1493.201172	5982.031738
1491.564453	6032.722656
1489.927734	5936.767090
1488.289063	6082.120117
1486.652344	6021.308105
1485.013672	5963.573242
1483.376953	6023.369629
1481.738281	5973.286621
1480.099609	6011.698730
1478.458984	5915.885254
1476.820313	6077.800781
1475.179688	5939.327637
1473.539063	6032.583008
1471.898438	6075.512207
1470.257813	6122.994141
1468.617188	6117.143555
1466.974609	5968.145508
1465.333984	6175.486816
1463.691406	6072.205078
1462.048828	6127.245605
1460.406250	6138.136230
1458.761719	6179.447266
1457.119141	6179.674805
1455.474609	6143.406738
1453.830078	6196.852539
1452.185547	6227.475586
1450.539063	6180.581055
1448.894531	6194.480469
1447.248047	6205.335938
1445.603516	6146.324219
1443.957031	6128.334473
1442.308594	6168.039551
1440.662109	6197.103516
1439.015625	6118.414551
1437.367188	6256.709961
1435.718750	6273.601074
1434.070313	6292.001465
1432.421875	6340.717285
1430.771484	6362.126465
1429.123047	6327.450684
1427.472656	6285.212891
1425.822266	6258.142090
1424.171875	6499.166504
1422.521484	6299.432617
1420.869141	6457.078613
1419.218750	6283.167969
1417.566406	6360.543945
1415.914063	6304.741211
1414.261719	6321.571289
1412.607422	6373.178711
1410.955078	6420.228027
1409.300781	6391.669434
1407.646484	6416.022461
1405.992188	6351.209473
1404.337891	6389.157715
1402.683594	6357.606934
1401.027344	6415.168945
1399.371094	6433.450684
1397.714844	6391.342773
1396.058594	6311.521973
1394.402344	6361.499023
1392.744141	6482.358398
1391.087891	6367.877441
1389.429688	6520.350586
1387.771484	6434.554199
1386.113281	6424.158691
1384.453125	6481.582031
1382.794922	6457.620117
1381.134766	6436.680664
1379.474609	6445.870605
1377.814453	6421.930176
1376.154297	6495.851074
1374.492188	6541.144043
1372.832031	6458.511230
1371.169922	6464.675781
1369.507813	6524.986816
1367.845703	6495.042480
1366.181641	6568.852539
1364.519531	6532.897949
1362.855469	6405.281738
1361.191406	6461.032227
1359.527344	6590.369141
1357.863281	6551.434570
1356.199219	6480.981934
1354.533203	6626.746094
1352.867188	6616.346191
1351.201172	6577.437012
1349.535156	6622.563965
1347.869141	6555.168945
1346.201172	6543.291016
1344.535156	6568.903320
1342.867188	6675.455078
1341.199219	6723.509277
1339.531250	6573.746094
1337.861328	6683.225098
1336.193359	6600.935059
1334.523438	6660.942871
1332.853516	6610.132324
1331.183594	6707.534668
1329.511719	6632.790039
1327.841797	6605.956543
1326.169922	6683.849121
1324.500000	6820.038574
1322.828125	6690.004883
1321.154297	6708.029785
1319.482422	6758.930176
1317.808594	6793.370117
1316.136719	6779.985840
1314.462891	6736.732422
1312.789063	6856.278809
1311.113281	6874.243652
1309.439453	6798.154785
1307.763672	6819.108398
1306.087891	6838.560547
1304.412109	6862.479492
1302.736328	6905.777832
1301.060547	6998.267578
1299.382813	6938.646484
1297.707031	7002.768066
1296.029297	6950.621582
1294.351563	6958.094727
1292.671875	6974.501953
1290.994141	7047.496582
1289.314453	6853.926270
1287.636719	6935.846680
1285.957031	7031.127441
1284.275391	7017.738770
1282.595703	7043.036621
1280.914063	6993.951172
1279.234375	7038.575195
1277.552734	6965.721680
1275.871094	7121.819336
1274.189453	7153.011230
1272.505859	7193.104492
1270.822266	7126.220703
1269.140625	7023.718262
1267.457031	7215.275391
1265.771484	7184.058105
1264.087891	7209.257324
1262.404297	7179.538086
1260.718750	7323.420410
1259.033203	7093.435059
1257.347656	7140.875977
1255.662109	7171.986328
1253.974609	7137.856934
1252.287109	7305.307617
1250.601563	7191.146484
1248.914063	7299.254883
1247.224609	7393.987305
1245.537109	7146.601563
1243.849609	7269.455078
1242.160156	7315.284180
1240.470703	7186.463867
1238.781250	7372.852539
1237.091797	7355.020020
1235.400391	7343.110840
1233.708984	7456.892090
1232.019531	7212.864746
1230.328125	7438.955566
1228.634766	7342.806152
1226.943359	7453.534668
1225.250000	7522.857422
1223.558594	7354.387695
1221.865234	7428.130371
1220.171875	7459.032227
1218.476563	7343.812500
1216.783203	7436.690918
1215.087891	7533.955078
1213.392578	7510.235352
1211.697266	7498.321777
1210.001953	7434.812988
1208.306641	7477.456543
1206.609375	7599.659180
1204.912109	7489.020996
1203.214844	7608.222168
1201.517578	7532.973145
1199.820313	7650.641113
1198.121094	7703.486816
1196.423828	7719.514648
1194.724609	7657.547363
1193.025391	7652.980957
1191.326172	7596.936523
1189.625000	7683.557129
1187.923828	7733.385254
1186.224609	7778.781738
1184.523438	7862.368164
1182.822266	7838.660156
1181.119141	7828.183105
1179.417969	7880.862305
1177.714844	7877.721191
1176.011719	7739.521484
1174.308594	7875.845215
1172.605469	7838.955078
1170.900391	7931.185547
1169.197266	7951.503418
1167.492188	7952.748047
1165.787109	7937.863281
1164.080078	7911.257813
1162.375000	7915.439453
1160.667969	7998.742188
1158.962891	8071.753906
1157.255859	8109.583984
1155.548828	8018.538086
1153.839844	8158.841797
1152.132813	8136.616211
1150.423828	8152.447266
1148.714844	8079.024414
1147.005859	8195.790039
1145.296875	8148.711914
1143.585938	8161.601074
1141.876953	8268.040039
1140.166016	8263.359375
1138.455078	8398.954102
1136.744141	8429.307617
1135.033203	8428.974609
1133.320313	8165.794922
1131.607422	8412.250000
1129.894531	8391.484375
1128.181641	8507.905273
1126.468750	8455.029297
1124.753906	8530.541016
1123.041016	8546.226563
1121.326172	8554.614258
1119.611328	8625.682617
1117.896484	8626.760742
1116.179688	8629.295898
1114.464844	8595.408203
1112.748047	8672.230469
1111.031250	8668.927734
1109.314453	8821.409180
1107.595703	8730.738281
1105.878906	8750.708008
1104.160156	8759.028320
1102.441406	8746.979492
1100.722656	8628.766602
1099.003906	8804.323242
1097.283203	8824.252930
1095.562500	8813.652344
1093.843750	8817.585938
1092.123047	8901.422852
1090.400391	8969.246094
1088.679688	8900.533203
1086.957031	8772.320313
1085.236328	8856.093750
1083.513672	8877.424805
1081.789063	8847.963867
1080.066406	8799.656250
1078.341797	8897.852539
1076.619141	8891.604492
1074.894531	8933.199219
1073.169922	8906.653320
1071.443359	8742.453125
1069.718750	8820.271484
1067.992188	8880.673828
1066.265625	8812.162109
1064.539063	8840.686523
1062.812500	8788.134766
1061.085938	8970.059570
1059.357422	8868.305664
1057.628906	8914.151367
1055.900391	8829.807617
1054.171875	8901.667969
1052.443359	8951.812500
1050.712891	8896.420898
1048.982422	8813.595703
1047.251953	8751.032227
1045.521484	8993.278320
1043.791016	8992.800781
1042.058594	9022.643555
1040.328125	8804.183594
1038.595703	9002.912109
1036.863281	8881.224609
1035.128906	8997.621094
1033.396484	8985.601563
1031.662109	8889.950195
1029.927734	9001.943359
1028.193359	9115.330078
1026.458984	9091.763672
1024.724609	9128.720703
1022.988281	9061.947266
1021.251953	9005.283203
1019.515625	9079.667969
1017.779297	9107.956055
1016.042969	9260.004883
1014.304688	9046.501953
1012.568359	9086.286133
1010.830078	9087.217773
1009.089844	9073.769531
1007.351563	9130.772461
1005.613281	9000.890625
1003.873047	9052.135742
1002.132813	9054.507813
1000.392578	9270.910156
998.652344	9345.041016
996.910156	9213.814453
995.169922	9293.666016
993.427734	9205.561523
991.685547	9167.716797
989.941406	9227.441406
988.199219	9327.299805
986.455078	9288.017578
984.712891	9155.560547
982.968750	9216.667969
981.222656	9264.850586
979.478516	9328.771484
977.734375	9226.500000
975.988281	9324.772461
974.242188	9158.110352
972.496094	9274.964844
970.748047	9268.682617
969.001953	9273.849609
967.253906	9396.324219
965.505859	9344.248047
963.757813	9303.632813
962.009766	9315.934570
960.259766	9215.307617
958.511719	9296.216797
956.761719	9459.960938
955.011719	9382.221680
953.259766	9455.900391
951.509766	9490.995117
949.757813	9310.513672
948.007813	9415.558594
946.255859	9433.514648
944.501953	9489.980469
942.750000	9349.588867
940.996094	9445.976563
939.244141	9412.582031
937.490234	9459.024414
935.734375	9538.223633
933.980469	9454.960938
932.224609	9502.787109
930.470703	9618.952148
928.714844	9515.790039
926.958984	9443.990234
925.201172	9471.848633
923.445313	9464.121094
921.687500	9666.949219
919.929688	9626.467773
918.171875	9581.736328
916.414063	9640.810547
914.654297	9556.294922
912.894531	9581.241211
911.136719	9567.813477
909.375000	9827.130859
907.615234	9687.256836
905.855469	9695.112305
904.093750	9658.956055
902.332031	9512.109375
900.570313	9701.625977
898.808594	9601.649414
897.044922	9779.716797
895.283203	9604.606445
893.519531	9765.582031
891.755859	9608.976563
889.992188	9740.121094
888.226563	9718.187500
886.462891	9781.255859
884.697266	9684.261719
882.931641	9716.158203
881.166016	9728.221680
879.398438	9888.888672
877.632813	9926.378906
875.865234	9712.033203
874.097656	9899.471680
872.330078	9873.298828
870.562500	9933.377930
868.792969	9812.502930
867.023438	9783.538086
865.253906	9775.777344
863.484375	9876.788086
861.714844	9716.483398
859.943359	9986.899414
858.173828	9895.811523
856.402344	9804.760742
854.628906	9839.333984
852.857422	9828.747070
851.085938	9782.903320
849.312500	9933.088867
847.539063	9925.305664
845.765625	9814.629883
843.992188	9816.740234
842.216797	9780.806641
840.441406	9815.320313
838.667969	9813.202148
836.892578	9940.621094
835.115234	9866.681641
833.339844	9956.033203
831.562500	10007.353516
829.785156	9917.970703
828.007813	10019.910156
826.230469	10047.276367
824.451172	10033.859375
822.673828	9952.978516
820.894531	10039.361328
819.115234	10068.101563
817.335938	9898.769531
815.554688	10041.281250
813.775391	10062.980469
811.994141	10132.397461
810.212891	10102.138672
808.431641	10220.626953
806.648438	10072.519531
804.867188	10068.939453
803.083984	10156.506836
801.300781	10058.977539
799.515625	10128.286133
797.732422	10309.671875
795.947266	10182.749023
794.164063	10271.594727
792.378906	10141.932617
790.591797	10068.332031
788.806641	10273.328125
787.019531	10304.693359
785.234375	10334.645508
783.447266	10161.740234
781.658203	10302.200195
779.871094	10139.164063
778.082031	10251.605469
776.294922	10239.602539
774.505859	10290.486328
772.716797	10395.834961
770.925781	10298.601563
769.136719	10476.518555
767.345703	10491.003906
765.554688	10322.620117
763.763672	10334.339844
761.970703	10358.611328
760.179688	10381.476563
758.386719	10309.492188
756.593750	10402.076172
754.800781	10316.176758
753.005859	10383.629883
751.212891	10321.459961
749.417969	10402.812500
747.623047	10484.128906
745.828125	10325.887695
744.033203	10987.759766
742.236328	17470.535156
740.439453	11923.756836
738.642578	11523.242188
736.845703	11328.776367
735.048828	10583.654297
733.250000	10318.562500
731.451172	10483.141602
729.652344	10423.882813
727.853516	10466.086914
726.054688	10448.533203
724.253906	10464.321289
722.455078	10402.337891
720.654297	10395.915039
718.853516	10518.581055
717.050781	10466.338867
715.250000	10630.558594
713.447266	10413.243164
711.644531	10499.739258
709.841797	10444.770508
708.037109	10503.496094
706.234375	10458.250000
704.429688	10487.846680
702.625000	10513.274414
700.820313	10524.840820
699.013672	10503.166992
697.208984	10362.441406
695.402344	10461.230469
693.595703	10440.965820
691.789063	10437.312500
689.982422	10508.354492
688.173828	10571.066406
686.365234	10554.941406
684.556641	10558.175781
682.748047	10551.732422
680.939453	10476.206055
679.128906	10468.401367
677.318359	10493.746094
675.507813	10694.443359
673.697266	10588.578125
671.886719	10532.445313
670.074219	10692.983398
668.261719	10747.219727
666.449219	10583.500000
664.636719	10469.496094
662.824219	10621.632813
661.009766	10670.321289
659.195313	10702.451172
657.380859	10671.186523
655.566406	10653.708984
653.751953	10745.039063
651.935547	10672.476563
650.119141	10794.046875
648.302734	10768.297852
646.486328	10591.197266
644.669922	10777.362305
642.851563	10570.076172
641.033203	10772.665039
639.214844	10613.587891
637.396484	10678.625977
635.578125	10760.125000
633.757813	10782.509766
631.937500	10578.236328
630.117188	10702.275391
628.296875	10634.036133
626.474609	10644.071289
624.654297	10696.646484
622.832031	10721.755859
621.009766	10675.517578
619.185547	10677.303711
617.363281	10779.186523
615.539063	10617.806641
613.714844	10649.755859
611.890625	10655.653320
610.066406	10642.367188
608.242188	10840.023438
606.416016	10759.599609
604.589844	10672.364258
602.763672	10709.730469
600.937500	10632.122070
599.109375	10800.829102
597.281250	10765.639648
595.453125	10655.245117
593.625000	10792.385742
591.796875	10781.826172
589.966797	10668.763672
588.138672	10701.959961
586.308594	10638.145508
584.478516	10702.746094
582.646484	10882.024414
580.816406	10610.692383
578.984375	10791.275391
577.152344	10795.739258
575.320313	10671.952148
573.486328	10769.194336
571.654297	10837.753906
569.820313	10663.588867
567.986328	10845.282227
566.152344	10762.500977
564.316406	10682.480469
562.482422	10771.415039
560.646484	10668.273438
558.810547	10754.447266
556.974609	10734.395508
555.136719	10631.327148
553.300781	10718.810547
551.462891	10800.813477
549.625000	10663.791992
547.785156	10524.109375
545.947266	10597.941406
544.107422	10637.758789
542.267578	10628.633789
540.427734	10688.805664
538.587891	10553.341797
536.748047	10492.631836
534.906250	10611.176758
533.064453	10679.442383
531.222656	10534.595703
529.378906	10376.243164
527.537109	10569.320313
525.693359	10480.200195
523.849609	10324.673828
522.005859	10319.699219
520.162109	10482.796875
518.316406	10401.902344
516.470703	10400.975586
514.625000	10283.560547
512.779297	10409.957031
510.933594	10211.353516
509.085938	10167.150391
507.238281	10250.180664
505.390625	10242.519531
503.542969	10303.850586
501.695313	10166.345703
499.845703	10238.482422
497.996094	10270.031250
496.146484	10151.543945
494.296875	10230.390625
492.447266	10040.361328
490.595703	10020.597656
488.744141	10148.033203
486.892578	10135.003906
485.041016	10189.468750
483.187500	10225.016602
481.333984	10118.882813
479.480469	10186.802734
477.626953	10210.187500
475.773438	10159.406250
473.917969	10021.025391
472.064453	9991.869141
470.208984	10026.053711
468.351563	10025.197266
466.496094	9970.467773
464.638672	10005.978516
462.783203	10061.666016
460.925781	9904.671875
459.066406	9985.922852
457.208984	10034.849609
455.349609	9849.717773
453.490234	9890.583008
451.630859	9999.996094
449.771484	9878.166992
447.912109	9999.627930
446.050781	9833.513672
444.189453	9836.722656
442.328125	9971.541016
440.466797	9800.169922
438.603516	9724.181641
436.740234	9754.250977
434.876953	9713.191406
433.013672	9839.835938
431.150391	9692.820313
429.285156	9694.708984
427.419922	9596.049805
425.554688	9435.780273
423.689453	9581.103516
421.824219	9585.691406
419.957031	9509.911133
418.089844	9542.632813
416.222656	9607.471680
414.355469	9547.797852
412.488281	9504.208008
410.619141	9447.256836
408.750000	9486.641602
406.880859	9404.309570
405.011719	9489.144531
403.140625	9297.231445
401.269531	9414.127930
399.398438	9410.714844
397.527344	9245.662109
395.656250	9386.530273
393.783203	9336.389648
391.910156	9354.354492
390.037109	9182.783203
388.164063	9230.129883
386.291016	9341.493164
384.416016	9214.052734
382.541016	9206.684570
380.666016	9297.978516
378.791016	9297.258789
376.914063	8991.363281
375.039063	9086.639648
373.162109	9053.996094
371.285156	8925.479492
369.406250	9047.334961
367.529297	9178.454102
365.650391	9192.396484
363.771484	8965.497070
361.892578	8900.992188
360.011719	8840.505859
358.132813	8830.574219
356.251953	8746.199219
354.371094	8861.228516
352.490234	8800.801758
350.607422	8804.169922
348.724609	8714.560547
346.841797	8700.681641
344.958984	8754.519531
343.076172	8712.762695
341.193359	8660.407227
339.308594	8642.571289
337.423828	8734.838867
335.539063	8585.700195
333.652344	8509.551758
331.767578	8560.692383
329.880859	8562.774414
327.994141	8537.029297
326.107422	8499.372070
324.218750	8502.789063
322.330078	8339.363281
320.443359	8464.604492
318.552734	8376.700195
316.664063	8336.471680
314.775391	8470.890625
312.884766	8426.689453
310.994141	8338.868164
309.103516	8307.935547
307.210938	8224.144531
305.320313	8297.647461
303.427734	8153.120117
301.535156	8083.947266
299.642578	8127.056641
297.748047	8031.512695
295.853516	7970.331543
293.960938	8043.789551
292.064453	8104.020508
290.169922	8057.372559
288.275391	7834.018066
286.378906	7998.419922
284.482422	7787.041016
282.585938	7844.623047
280.687500	7902.179199
278.791016	7856.952148
276.892578	7855.208984
274.994141	7782.358398
273.095703	7777.998535
271.195313	7785.486328
269.294922	7727.173340
267.396484	7700.460938
265.494141	7634.299805
263.593750	7574.742188
261.691406	7630.910645
259.791016	7549.033203
257.888672	7530.272461
255.986328	7444.511230
254.082031	7529.555664
252.177734	7512.123535
250.275391	7481.568359
248.371094	7516.662598
246.464844	7436.246582
244.560547	7292.883301
242.654297	7379.156738
240.748047	7267.345703
238.841797	7366.698242
236.935547	7214.298828
235.027344	7244.151367
233.119141	7230.747559
231.210938	7170.185059
229.302734	7249.799316
227.392578	7236.401367
225.484375	7116.961426
223.574219	7089.199707
221.664063	7189.697266
219.751953	7112.213379
217.841797	6958.895508
215.929688	7013.581543
214.017578	6974.104004
212.105469	6925.493164
210.193359	7033.731445
208.279297	6990.354492
206.365234	6873.842285
204.451172	6805.704590
202.537109	6763.711914
200.621094	6796.147461
198.705078	6730.681152
196.789063	6747.450684
194.873047	6734.206543
192.957031	6666.187988
191.039063	6755.982422
189.123047	6723.188477
187.203125	6716.477051
185.285156	6619.852539
183.367188	6617.074707
181.447266	6659.886230
179.527344	6535.990234
177.607422	6623.066895
175.687500	6473.200195
173.765625	6500.387207
171.843750	6449.496582
169.921875	6511.797363
168.000000	6431.014160
166.078125	6303.458496
164.154297	6298.152832
162.230469	6387.722656
160.306641	6369.406250
158.382813	6261.462402
156.457031	6305.521973
154.531250	6266.458984
152.605469	6244.289551
150.679688	6254.576660
148.753906	6244.097656
146.826172	6303.677734
144.898438	6150.517578
142.970703	6166.001953
141.042969	6155.549805
139.113281	6129.548340
137.183594	5988.225098
135.253906	6038.710938
133.324219	5947.986816
131.394531	5903.922852
129.462891	5824.920898
127.531250	5865.041016
125.599609	5660.550781
123.667969	5572.598145
121.734375	5483.390625
119.802734	5288.174805
117.869141	5133.127930
115.935547	5073.809570
114.000000	4863.305664
112.066406	4785.983887
110.130859	4793.956055
108.195313	4789.009277
106.257813	4649.774902
104.322266	4580.314453
102.384766	4561.220215
100.447266	4646.655273
