#Wave		#Intensity
3501.405273	149.464554
3500.167969	139.365601
3498.929688	155.494644
3497.691406	102.970566
3496.453125	113.044426
3495.213867	119.077942
3493.975586	117.037628
3492.736328	98.857986
3491.497070	94.805107
3490.256836	98.820747
3489.017578	22.180071
3487.777344	102.815491
3486.537109	114.889786
3485.296875	96.731056
3484.055664	130.965286
3482.814453	106.766960
3481.573242	78.549561
3480.332031	167.138062
3479.089844	110.733261
3477.848633	114.738297
3476.606445	158.993271
3475.363281	76.463356
3474.121094	54.318985
3472.877930	60.343044
3471.634766	108.597000
3470.391602	90.480431
3469.147461	114.586937
3467.904297	102.505814
3466.660156	96.457863
3465.416016	30.137396
3464.170898	78.342445
3462.926758	114.478897
3461.681641	116.465324
3460.436523	88.336334
3459.190430	98.355988
3457.945313	104.358086
3456.699219	74.240784
3455.453125	68.208382
3454.206055	106.304764
3452.959961	124.333046
3451.712891	130.324554
3450.465820	106.244576
3449.218750	116.245697
3447.970703	108.208321
3446.722656	82.142654
3445.474609	88.136444
3444.226563	78.106186
3442.978516	86.100815
3441.729492	96.094383
3440.480469	108.085762
3439.231445	52.031464
3437.981445	134.055756
3436.731445	94.021339
3435.481445	62.002361
3434.231445	123.981293
3432.981445	79.972816
3431.730469	113.939728
3430.479492	125.909584
3429.228516	111.898476
3427.977539	137.848846
3426.725586	57.925522
3425.473633	51.923409
3424.221680	91.847130
3422.969727	131.755753
3421.716797	93.808327
3420.463867	79.821777
3419.210938	109.734184
3417.958008	115.697807
3416.704102	147.586517
3415.450195	87.737556
3414.196289	117.625832
3412.942383	107.637177
3411.687500	113.595528
3410.433594	95.641296
3409.178711	61.756649
3407.922852	153.366531
3406.667969	21.905357
3405.412109	111.497086
3404.156250	95.550842
3402.900391	125.386742
3401.643555	115.413567
3400.386719	107.433670
3399.129883	121.337288
3397.873047	107.393005
3396.616211	57.663101
3395.358398	83.496269
3394.100586	95.406235
3392.842773	81.477394
3391.583984	119.212631
3390.326172	143.028061
3389.067383	139.028732
3387.808594	71.486946
3386.548828	81.400269
3385.289063	91.309830
3384.030273	97.246391
3382.769531	93.259483
3381.509766	154.741730
3380.249023	59.504772
3378.988281	99.155823
3377.727539	152.671036
3376.466797	134.800812
3375.205078	122.883331
3373.943359	126.823265
3372.681641	97.080658
3371.419922	140.641220
3370.157227	144.575531
3368.894531	69.303894
3367.631836	124.723358
3366.369141	114.802910
3365.105469	81.138390
3363.842773	158.288788
3362.578125	104.846428
3361.314453	94.937248
3360.050781	110.739113
3358.786133	90.947014
3357.521484	134.417908
3356.255859	100.794304
3354.991211	94.847229
3353.725586	175.829208
3352.459961	79.009369
3351.194336	114.541840
3349.927734	108.596649
3348.661133	84.886719
3347.394531	136.187714
3346.127930	132.215149
3344.860352	63.135544
3343.593750	86.794891
3342.326172	57.194862
3341.057617	72.958900
3339.790039	108.431824
3338.521484	137.977936
3337.252930	90.653999
3335.984375	102.458969
3334.714844	90.619560
3333.446289	114.237747
3332.176758	59.077263
3330.906250	70.879250
3329.636719	88.582230
3328.366211	98.405998
3327.095703	100.355049
3325.825195	66.890648
3324.554688	110.151901
3323.283203	110.130966
3322.011719	174.996307
3320.740234	74.703323
3319.467773	135.619720
3318.195313	133.628799
3316.922852	123.779625
3315.650391	123.756088
3314.377930	41.244186
3313.104492	72.654510
3311.831055	98.163101
3310.557617	115.810425
3309.283203	96.163246
3308.009766	103.993523
3306.735352	100.050209
3305.460938	82.378616
3304.185547	129.427475
3302.911133	84.307922
3301.635742	113.696022
3300.359375	94.075356
3299.083984	68.583565
3297.807617	74.447983
3296.531250	137.114914
3295.254883	142.964050
3293.978516	76.363518
3292.701172	76.348984
3291.423828	148.754318
3290.146484	113.501411
3288.869141	76.305382
3287.590820	82.159386
3286.312500	138.862030
3285.034180	111.459557
3283.754883	95.797867
3282.476563	95.779617
3281.197266	76.218239
3279.917969	80.111603
3278.637695	66.421356
3277.357422	109.379036
3276.078125	66.396049
3274.796875	121.052078
3273.516602	126.885254
3272.235352	103.440567
3270.954102	62.442780
3269.672852	103.401146
3268.391602	97.529655
3267.109375	157.967926
3265.827148	101.392181
3264.544922	85.777023
3263.262695	58.473186
3261.979492	68.205711
3260.696289	107.159966
3259.413086	38.959827
3258.128906	60.376217
3256.845703	68.153694
3255.561523	60.353191
3254.277344	101.218300
3252.992188	114.821930
3251.707031	83.667816
3250.422852	75.870285
3249.136719	85.580917
3247.851563	66.118088
3246.565430	103.046768
3245.279297	120.522270
3243.993164	75.797928
3242.707031	83.556122
3241.419922	102.968124
3240.132813	99.063622
3238.845703	120.407295
3237.557617	102.909164
3236.270508	77.652466
3234.982422	71.814812
3233.694336	93.147377
3232.405273	71.787392
3231.116211	102.810951
3229.827148	67.881058
3228.538086	178.396118
3227.249023	104.690765
3225.958984	114.362503
3224.668945	100.774818
3223.378906	116.256424
3222.087891	120.108681
3220.797852	94.906464
3219.506836	89.078842
3218.215820	98.742447
3216.923828	63.879963
3215.631836	69.673912
3214.339844	106.425903
3213.047852	50.300812
3211.755859	85.108177
3210.462891	83.157997
3209.169922	88.942711
3207.876953	92.792038
3206.583008	110.169479
3205.289063	86.959267
3203.995117	94.670876
3202.701172	88.857697
3201.407227	56.008270
3200.112305	90.754662
3198.817383	117.765427
3197.521484	71.417824
3196.226563	55.965424
3194.930664	63.672607
3193.634766	106.100700
3192.338867	98.365463
3191.041992	86.776443
3189.745117	92.543823
3188.448242	113.730011
3187.151367	102.144691
3185.854492	50.099125
3184.556641	75.134300
3183.258789	104.012192
3181.959961	86.660233
3180.662109	115.524849
3179.363281	86.627045
3178.064453	100.083191
3176.764648	105.836945
3175.465820	132.751831
3174.166016	107.719978
3172.866211	107.699341
3171.565430	84.604698
3170.265625	42.294247
3168.964844	142.235199
3167.664063	109.538559
3166.362305	109.517563
3165.061523	92.207642
3163.759766	90.269348
3162.458008	128.657181
3161.155273	101.754074
3159.853516	140.124969
3158.550781	147.774719
3157.248047	140.071259
3155.944336	92.083984
3154.640625	105.492668
3153.337891	57.530422
3152.033203	70.940582
3150.729492	80.511703
3149.424805	53.664173
3148.120117	61.318722
3146.815430	78.549538
3145.509766	74.703522
3144.205078	86.179832
3142.899414	88.078041
3141.592773	105.290497
3140.287109	70.818192
3138.980469	80.372795
3137.673828	103.316620
3136.367188	28.693552
3135.059570	128.139938
3133.752930	131.939682
3132.445313	107.060921
3131.136719	93.660316
3129.829102	108.930885
3128.520508	82.160149
3127.211914	55.399693
3125.902344	57.299023
3124.593750	80.203224
3123.284180	45.821613
3121.974609	64.901482
3120.664063	57.255013
3119.354492	97.314827
3118.043945	62.956322
3116.733398	93.462639
3115.421875	95.351715
3114.111328	62.920036
3112.799805	179.192337
3111.488281	87.673012
3110.175781	81.939453
3108.864258	89.544518
3107.551758	51.430580
3106.238281	104.745857
3104.925781	137.095490
3103.612305	59.015873
3102.298828	85.651733
3100.985352	102.762314
3099.671875	114.158394
3098.357422	108.429619
3097.042969	110.310677
3095.727539	58.947815
3094.413086	98.861183
3093.097656	83.635681
3091.782227	77.918251
3090.466797	74.103104
3089.150391	37.994278
3087.833984	89.269379
3086.517578	132.928802
3085.201172	110.119812
3083.883789	123.386383
3082.566406	113.873207
3081.249023	68.310768
3079.931641	75.886246
3078.613281	111.910667
3077.294922	121.371246
3075.976563	104.283333
3074.658203	75.827820
3073.338867	102.347847
3072.019531	113.697929
3070.700195	85.257027
3069.379883	73.875191
3068.060547	60.603863
3066.740234	85.207764
3065.418945	47.328529
3064.098633	132.494354
3062.777344	113.544701
3061.456055	88.926216
3060.134766	77.558983
3058.812500	77.544037
3057.491211	69.965279
3056.167969	94.529449
3054.845703	79.389435
3053.523438	107.722031
3052.200195	90.695801
3050.876953	66.119606
3049.552734	84.994530
3048.229492	83.089737
3046.905273	147.267044
3045.580078	62.293274
3044.255859	96.252853
3042.930664	73.590927
3041.605469	64.143822
3040.280273	71.676323
3038.955078	54.689796
3037.628906	92.389069
3036.302734	94.256378
3034.976563	64.081970
3033.649414	81.029205
3032.322266	92.317787
3030.995117	113.020370
3029.667969	143.131500
3028.339844	94.147285
3027.012695	71.538124
3025.684570	69.642097
3024.355469	99.738335
3023.027344	79.022667
3021.698242	109.105469
3020.369141	103.442108
3019.039063	112.824142
3017.708984	73.321526
3016.378906	77.066719
3015.048828	88.327713
3013.718750	95.826447
3012.387695	80.779243
3011.056641	61.981396
3009.725586	67.603004
3008.393555	93.874916
3007.062500	91.979645
3005.730469	95.715416
3004.397461	116.337425
3003.065430	67.537704
3001.732422	97.535606
3000.399414	97.516754
2999.065430	80.623268
2997.732422	114.350426
2996.398438	123.699493
2995.064453	108.684601
2993.729492	91.801994
2992.395508	50.574989
2991.060547	59.929134
2989.724609	74.896927
2988.389648	89.858932
2987.053711	84.226448
2985.717773	117.894218
2984.381836	112.258492
2983.044922	29.929806
2981.708984	46.756271
2980.372070	87.884781
2979.034180	89.737297
2977.697266	121.495743
2976.359375	85.964958
2975.021484	85.948318
2973.682617	65.382805
2972.344727	80.311897
2971.005859	72.826920
2969.666016	33.605915
2968.327148	61.598915
2966.987305	76.517166
2965.647461	141.809235
2964.307617	93.277481
2962.967773	82.068283
2961.626953	76.457909
2960.286133	74.578629
2958.944336	83.884705
2957.603516	70.822250
2956.261719	80.125435
2954.919922	96.877106
2953.577148	83.819710
2952.235352	67.042770
2950.892578	78.201408
2949.549805	52.124168
2948.206055	107.950562
2946.863281	74.434235
2945.519531	115.350693
2944.174805	78.125641
2942.831055	122.745064
2941.486328	96.689484
2940.141602	44.617260
2938.796875	107.804138
2937.451172	98.491570
2936.105469	92.898552
2934.759766	65.016373
2933.414063	100.291519
2932.067383	38.994690
2930.720703	87.256905
2929.374023	122.507195
2928.027344	116.915993
2926.679688	77.928871
2925.332031	61.217945
2923.984375	55.641876
2922.635742	77.883507
2921.287109	66.744331
2919.938477	88.975174
2918.589844	133.436844
2917.240234	107.469925
2915.890625	64.839951
2914.541016	75.940620
2913.191406	103.703629
2911.840820	112.940948
2910.490234	92.556564
2909.139648	96.240135
2907.789063	88.819786
2906.437500	98.052803
2905.085938	101.733139
2903.734375	103.562706
2902.381836	73.958992
2901.029297	75.793236
2899.676758	138.619217
2898.324219	73.915878
2896.970703	72.053978
2895.617188	84.970222
2894.263672	73.872787
2892.910156	92.323036
2891.555664	53.536949
2890.201172	70.138229
2888.846680	116.259186
2887.491211	101.476379
2886.135742	64.563324
2884.780273	57.173534
2883.424805	22.127386
2882.068359	70.056427
2880.712891	105.064201
2879.355469	40.543205
2877.999023	99.495781
2876.641602	119.740143
2875.284180	112.349655
2873.926758	81.023323
2872.569336	103.100525
2871.210938	101.239738
2869.852539	114.102585
2868.494141	158.240524
2867.134766	82.784157
2865.775391	88.285912
2864.416016	42.295429
2863.056641	97.444405
2861.696289	110.292938
2860.335938	90.055031
2858.975586	90.037491
2857.614258	73.485680
2856.253906	112.043831
2854.892578	88.148468
2853.530273	100.983772
2852.168945	88.114128
2850.806641	49.554539
2849.444336	82.574806
2848.082031	64.212334
2846.718750	75.205505
2845.355469	102.699699
2843.992188	80.676895
2842.627930	78.827965
2841.264648	43.988426
2839.900391	97.122169
2838.535156	60.460506
2837.170898	108.074982
2835.805664	84.245422
2834.440430	104.370712
2833.075195	113.503899
2831.708984	104.330009
2830.342773	80.519737
2828.976563	69.526207
2827.609375	111.586090
2826.243164	65.841240
2824.875977	63.999828
2823.507813	104.207962
2822.140625	32.901356
2820.772461	47.514908
2819.404297	113.282669
2818.035156	113.260559
2816.666992	60.272079
2815.297852	89.477440
2813.928711	91.285690
2812.558594	62.062149
2811.189453	69.350037
2809.819336	65.687210
2808.448242	102.160149
2807.078125	124.027390
2805.707031	133.121048
2804.335938	109.393188
2802.963867	60.154503
2801.592773	71.077805
2800.220703	80.174675
2798.848633	67.406441
2797.475586	91.071991
2796.102539	85.590942
2794.729492	58.263302
2793.356445	80.096382
2791.982422	111.021011
2790.609375	114.638634
2789.234375	100.061790
2787.860352	96.404327
2786.485352	63.650791
2785.110352	130.913177
2783.735352	59.990143
2782.360352	129.044464
2780.984375	110.847504
2779.608398	50.870872
2778.231445	90.823082
2776.855469	99.885849
2775.478516	134.365585
2774.101563	121.631531
2772.723633	68.971550
2771.346680	78.031487
2769.968750	67.130234
2768.589844	116.094444
2767.211914	77.985695
2765.833008	88.850029
2764.454102	88.832642
2763.075195	110.565926
2761.695313	92.422272
2760.315430	56.167248
2758.935547	115.935486
2757.554688	88.745728
2756.174805	95.971481
2754.793945	88.710983
2753.412109	92.313759
2752.031250	83.247086
2750.649414	63.327766
2749.267578	121.203697
2747.884766	77.772209
2746.502930	77.756973
2745.120117	77.741745
2743.736328	86.764481
2742.353516	45.180977
2740.969727	61.434090
2739.585938	86.713486
2738.202148	83.084137
2736.817383	61.397980
2735.432617	93.884384
2734.047852	144.409210
2732.662109	10.828568
2731.277344	81.198334
2729.891602	110.047272
2728.504883	68.540596
2727.119141	36.066925
2725.732422	36.059853
2724.345703	99.145149
2722.958008	90.114273
2721.571289	100.908188
2720.183594	84.674187
2718.794922	21.614700
2717.407227	99.047943
2716.018555	75.621773
2714.629883	108.009903
2713.241211	73.792290
2711.851563	100.769684
2710.461914	79.160645
2709.072266	102.528885
2707.681641	102.508759
2706.291016	71.921852
2704.900391	82.693893
2703.509766	64.704254
2702.119141	57.503601
2700.727539	53.899040
2699.334961	52.092175
2697.943359	79.020882
2696.550781	57.458443
2695.158203	78.989845
2693.765625	80.769196
2692.372070	48.452000
2690.979492	104.061623
2689.584961	52.020588
2688.191406	109.401115
2686.796875	102.207191
2685.402344	46.611660
2684.007813	34.055672
2682.613281	78.850273
2681.217773	112.877060
2679.822266	121.811607
2678.425781	100.295723
2677.030273	55.509930
2675.633789	116.368904
2674.237305	110.976204
2672.839844	51.898018
2671.442383	57.255516
2670.044922	137.743988
2668.647461	132.351303
2667.249023	67.950813
2665.850586	98.330521
2664.452148	82.223892
2663.053711	109.014580
2661.654297	119.713760
2660.254883	58.951893
2658.855469	85.731331
2657.455078	80.357307
2656.054688	94.624428
2654.654297	67.830574
2653.252930	89.233185
2651.852539	87.431305
2650.451172	69.574486
2649.048828	42.806637
2647.647461	76.680122
2646.245117	80.230843
2644.842773	128.344070
2643.439453	96.239090
2642.037109	48.110069
2640.633789	90.856674
2639.229492	94.401085
2637.826172	110.409698
2636.421875	60.535324
2635.017578	78.324394
2633.613281	108.564697
2632.208008	80.072929
2630.802734	26.685717
2629.397461	112.057922
2627.991211	67.577171
2626.584961	92.455795
2625.178711	69.328178
2623.772461	79.978279
2622.365234	83.516403
2620.958008	111.925446
2619.550781	78.154739
2618.142578	49.725025
2616.735352	117.185867
2615.326172	86.984474
2613.917969	104.715744
2612.508789	124.214516
2611.099609	74.514008
2609.690430	24.833101
2608.281250	88.672150
2606.871094	120.570328
2605.460938	70.909729
2604.049805	120.522743
2602.639648	74.425827
2601.228516	79.726219
2599.817383	79.710480
2598.405273	108.030655
2596.993164	129.257065
2595.581055	84.974167
2594.168945	69.027878
2592.755859	111.484558
2591.342773	104.385551
2589.929688	91.982658
2588.516602	91.964493
2587.102539	83.105331
2585.688477	56.571178
2584.273438	88.375000
2582.859375	106.029053
2581.444336	90.106888
2580.028320	86.556175
2578.613281	72.410248
2577.197266	127.134323
2575.781250	118.282173
2574.365234	93.547997
2572.948242	120.000122
2571.531250	75.867432
2570.114258	63.504360
2568.696289	59.964481
2567.278320	91.692253
2565.860352	104.014870
2564.442383	98.706451
2563.023438	89.875603
2561.604492	118.048515
2560.185547	103.932610
2558.766602	110.956932
2557.346680	117.978470
2555.926758	114.434082
2554.505859	114.411438
2553.084961	114.388802
2551.665039	117.885124
2550.243164	65.087860
2548.822266	93.215508
2547.400391	87.921753
2545.978516	82.630089
2544.555664	82.613731
2543.133789	57.993900
2541.710938	61.496506
2540.287109	79.051277
2538.864258	59.715805
2537.440430	66.727982
2536.016602	71.981720
2534.591797	84.254585
2533.167969	119.337029
2531.743164	96.503471
2530.317383	138.586624
2528.892578	75.418282
2527.466797	91.185432
2526.041016	71.881958
2524.614258	84.137810
2523.187500	47.318138
2521.760742	115.643639
2520.333984	70.073158
2518.906250	113.846313
2517.479492	78.801056
2516.050781	120.804329
2514.623047	129.532578
2513.194336	106.755684
2511.765625	111.983757
2510.336914	101.465157
2508.907227	120.684608
2507.477539	148.639954
2506.047852	101.404793
2504.617188	99.636665
2503.186523	85.635582
2501.755859	115.322998
2500.325195	103.071320
2498.893555	55.891994
2497.461914	103.030411
2496.030273	106.501831
2494.597656	111.717445
2493.166016	104.714317
2491.732422	78.520149
2490.299805	97.694565
2488.866211	64.535378
2487.432617	85.448807
2485.999023	90.662361
2484.564453	69.726425
2483.130859	62.741322
2481.695313	76.668610
2480.260742	102.785217
2478.825195	95.797691
2477.389648	94.037231
2475.954102	109.688309
2474.517578	99.222084
2473.081055	69.615700
2471.644531	97.442612
2470.207031	118.299660
2468.770508	137.409058
2467.332031	67.821365
2465.894531	85.194527
2464.456055	100.822449
2463.017578	60.829041
2461.579102	74.717964
2460.140625	52.118446
2458.701172	76.425186
2457.261719	59.044083
2455.821289	71.186058
2454.380859	98.946304
2452.940430	100.662178
2451.500000	126.670296
2450.058594	71.129440
2448.617188	112.743744
2447.175781	83.240356
2445.734375	114.432716
2444.291992	69.339363
2442.849609	107.454620
2441.407227	98.769264
2439.963867	32.916534
2438.520508	119.515205
2437.077148	93.515015
2435.632813	107.347717
2434.188477	107.326347
2432.744141	136.727310
2431.299805	102.092468
2429.854492	91.691917
2428.409180	60.539207
2426.963867	119.324951
2425.517578	95.095146
2424.071289	55.317066
2422.625000	69.132553
2421.177734	48.383148
2419.730469	89.836517
2418.283203	86.364052
2416.835938	79.439095
2415.387695	89.782822
2413.939453	55.239956
2412.491211	39.695805
2411.041992	46.590134
2409.593750	103.512985
2408.143555	87.968498
2406.693359	74.154732
2405.244141	39.656250
2403.794922	91.363571
2402.343750	24.128960
2400.892578	127.513351
2399.441406	43.070244
2397.990234	93.013168
2396.539063	105.049477
2395.085938	89.532509
2393.634766	77.464592
2392.181641	92.938965
2390.728516	94.641167
2389.275391	120.428360
2387.822266	70.522530
2386.369141	92.864799
2384.914063	73.933136
2383.460938	113.456108
2382.005859	56.716732
2380.550781	106.537430
2379.095703	121.978188
2377.640625	123.671486
2376.183594	80.713875
2374.728516	58.377102
2373.271484	90.981422
2371.814453	77.232948
2370.357422	48.046459
2368.900391	118.376549
2367.443359	90.908745
2365.986328	89.175667
2364.527344	135.451355
2363.068359	87.425804
2361.611328	121.686104
2360.152344	73.682487
2358.693359	114.784653
2357.232422	82.217346
2355.773438	101.038620
2354.312500	89.033180
2352.851563	78.744377
2351.392578	54.767742
2349.931641	35.934143
2348.468750	73.564720
2347.007813	58.155823
2345.546875	58.144192
2344.083984	128.233582
2342.621094	114.532425
2341.158203	66.654793
2339.695313	66.641457
2338.232422	47.835575
2336.769531	111.024643
2335.304688	66.601456
2333.839844	54.636414
2332.375000	138.270737
2330.910156	87.041931
2329.445313	109.207222
2327.980469	81.889023
2326.515625	98.929420
2325.048828	49.454807
2323.582031	81.839844
2322.115234	63.072247
2320.648438	117.597656
2319.181641	93.718491
2317.714844	80.070671
2316.246094	74.944756
2314.779297	78.335640
2313.310547	47.673012
2311.841797	80.006523
2310.373047	85.096268
2308.904297	69.764954
2307.433594	102.074600
2305.964844	107.156845
2304.494141	130.943222
2303.023438	90.111687
2301.552734	95.193260
2300.082031	98.573257
2298.611328	86.659103
2297.138672	95.136017
2295.667969	71.337708
2294.195313	73.021576
2292.722656	93.380959
2291.250000	127.312126
2289.777344	101.829269
2288.302734	93.324776
2286.830078	86.520157
2285.355469	108.552528
2283.880859	94.964409
2282.408203	54.254486
2280.931641	128.828552
2279.457031	96.602020
2277.982422	71.166145
2276.505859	72.845955
2275.029297	89.768852
2273.554688	113.458595
2272.078125	108.356598
2270.599609	74.480202
2269.123047	54.156544
2267.646484	67.682083
2266.167969	121.803291
2264.689453	82.877258
2263.210938	111.608170
2261.732422	84.534660
2260.253906	113.253685
2258.775391	47.320389
2257.294922	64.207626
2255.814453	13.514678
2254.333984	65.870819
2252.853516	82.744141
2251.373047	72.597610
2249.892578	91.150764
2248.412109	43.878582
2246.929688	107.987106
2245.447266	104.591476
2243.964844	33.732403
2242.482422	102.863144
2241.000000	119.701874
2239.517578	77.537727
2238.033203	102.801094
2236.548828	52.232670
2235.066406	72.437195
2233.582031	117.897293
2232.095703	95.982765
2230.611328	67.342773
2229.126953	57.229843
2227.640625	89.193268
2226.154297	77.397446
2224.667969	85.792946
2223.181641	52.138157
2221.695313	82.395332
2220.208984	102.553139
2218.720703	55.468395
2217.234375	105.872887
2215.746094	77.288452
2214.257813	105.830254
2212.769531	78.936829
2211.279297	130.975159
2209.791016	90.656853
2208.300781	87.281609
2206.812500	58.735401
2205.322266	93.957703
2203.832031	50.324345
2202.341797	85.534149
2200.849609	73.779297
2199.359375	85.499680
2197.867188	112.300468
2196.375000	85.465218
2194.882813	107.228851
2193.390625	58.628956
2191.898438	80.389214
2190.404297	63.628632
2188.912109	123.883400
2187.417969	76.993073
2185.923828	88.691521
2184.429688	45.173359
2182.935547	80.292000
2181.439453	83.620628
2179.945313	101.996582
2178.449219	71.884727
2176.953125	73.541626
2175.458984	113.632301
2173.960938	88.548485
2172.464844	26.726223
2170.968750	108.553368
2169.470703	58.440018
2167.972656	88.477020
2166.474609	75.106834
2164.976563	110.134453
2163.478516	51.719372
2161.980469	56.713020
2160.480469	105.064667
2158.982422	98.374031
2157.482422	30.006353
2155.982422	55.000538
2154.482422	96.648087
2152.980469	76.636444
2151.480469	126.591156
2149.978516	43.298752
2148.476563	68.265007
2146.974609	71.580536
2145.472656	81.552032
2143.970703	68.223625
2142.468750	91.500999
2140.964844	89.819191
2139.462891	93.126999
2137.958984	39.903500
2136.455078	101.400894
2134.949219	91.408546
2133.445313	43.202576
2131.941406	96.355492
2130.435547	61.455727
2128.929688	112.922813
2127.423828	119.541145
2125.917969	87.977768
2124.412109	82.981102
2122.906250	82.964310
2121.398438	63.040119
2119.890625	84.589355
2118.382813	33.165585
2116.875000	49.738308
2115.367188	34.809769
2113.859375	67.948174
2112.349609	46.394238
2110.841797	86.143280
2109.332031	69.563179
2107.822266	79.484680
2106.312500	79.468582
2104.800781	49.657806
2103.291016	105.915199
2101.779297	79.420311
2100.269531	72.787209
2098.757813	71.118538
2097.246094	102.522240
2095.732422	99.194969
2094.220703	95.869041
2092.707031	99.154778
2091.195313	102.439171
2089.681641	49.557293
2088.167969	47.895676
2086.654297	62.747128
2085.138672	97.403427
2083.625000	89.130829
2082.109375	74.260628
2080.593750	64.346161
2079.078125	131.965363
2077.562500	61.021603
2076.046875	100.582779
2074.531250	56.051163
2073.013672	62.632710
2071.496094	69.211586
2069.978516	107.091438
2068.460938	82.361313
2066.943359	32.937840
2065.425781	88.914124
2063.906250	49.386711
2062.386719	74.065033
2060.869141	49.366669
2059.349609	65.808861
2057.828125	105.272804
2056.308594	49.336609
2054.789063	108.518501
2053.267578	110.140358
2051.746094	105.187332
2050.224609	110.095627
2048.703125	93.644424
2047.181641	68.987137
2045.658203	80.468651
2044.136719	36.121441
2042.613281	68.945107
2041.089844	77.137184
2039.566406	68.917091
2038.042969	59.059792
2036.517578	78.730385
2034.994141	49.196491
2033.468750	101.652077
2031.943359	95.074554
2030.417969	50.805378
2028.892578	45.879398
2027.367188	85.187279
2025.839844	8.189419
2024.314453	67.139580
2022.787109	58.939838
2021.259766	68.749161
2019.732422	86.737244
2018.203125	65.448753
2016.675781	106.332596
2015.146484	49.066597
2013.619141	35.974850
2012.089844	47.411743
2010.560547	42.498432
2009.029297	76.808456
2007.500000	40.847244
2005.968750	86.578537
2004.439453	19.598698
2002.908203	86.543289
2001.376953	63.669834
1999.843750	71.818008
1998.312500	42.429272
1996.781250	73.420326
1995.248047	84.823990
1993.714844	61.974136
1992.181641	71.744911
1990.648438	53.797722
1989.115234	66.825981
1987.580078	78.219353
1986.044922	91.237320
1984.511719	105.878883
1982.976563	96.085861
1981.441406	87.925072
1979.904297	94.418793
1978.369141	73.241028
1976.832031	97.634796
1975.294922	87.853401
1973.759766	58.556995
1972.220703	73.181320
1970.683594	58.533119
1969.146484	63.397949
1967.607422	74.761818
1966.068359	43.872986
1964.531250	45.488632
1962.992188	87.710182
1961.451172	110.427322
1959.912109	71.438393
1958.371094	95.772850
1956.832031	86.015686
1955.291016	51.923401
1953.750000	69.757828
1952.208984	90.828865
1950.666016	92.431938
1949.125000	85.927940
1947.582031	61.596134
1946.039063	155.579514
1944.496094	27.544914
1942.953125	53.458622
1941.410156	79.361740
1939.865234	30.766636
1938.322266	71.234497
1936.777344	77.694489
1935.232422	93.861664
1933.687500	59.865036
1932.142578	72.793953
1930.595703	84.100273
1929.050781	114.805748
1927.503906	64.666077
1925.957031	116.375153
1924.410156	74.335594
1922.863281	69.473419
1921.314453	53.305912
1919.767578	54.910015
1918.218750	50.054775
1916.669922	87.174362
1915.121094	83.928520
1913.572266	62.933514
1912.021484	74.214096
1910.472656	69.359856
1908.921875	51.606079
1907.371094	62.882042
1905.820313	37.076694
1904.269531	32.234009
1902.718750	75.734413
1901.166016	101.495575
1899.615234	64.428444
1898.062500	41.869919
1896.509766	69.232231
1894.957031	88.534729
1893.402344	88.516602
1891.849609	74.016914
1890.294922	70.784286
1888.740234	91.679054
1887.185547	90.052200
1885.630859	81.995033
1884.076172	90.015320
1882.519531	67.497665
1880.964844	98.012238
1879.408203	53.012154
1877.851563	86.729385
1876.294922	57.807743
1874.736328	64.217667
1873.179688	88.281197
1871.621094	93.077454
1870.064453	70.596008
1868.505859	48.123779
1866.947266	99.435417
1865.386719	51.310986
1863.828125	57.713024
1862.267578	104.182709
1860.708984	41.664536
1859.148438	89.720604
1857.587891	86.498550
1856.025391	105.698769
1854.464844	84.861900
1852.902344	86.445335
1851.341797	92.829643
1849.779297	102.411697
1848.216797	100.790825
1846.652344	57.582939
1845.089844	71.963905
1843.525391	75.146873
1841.962891	95.912491
1840.398438	76.714241
1838.833984	67.111183
1837.267578	119.816788
1835.703125	81.458687
1834.136719	97.410973
1832.572266	55.880066
1831.005859	49.483608
1829.439453	114.906067
1827.873047	89.353027
1826.304688	23.928930
1824.738281	74.961914
1823.169922	70.162689
1821.601563	84.496788
1820.033203	76.509666
1818.464844	76.493950
1816.896484	68.511742
1815.326172	60.532818
1813.755859	35.038113
1812.185547	98.723473
1810.615234	62.087482
1809.044922	79.582970
1807.474609	92.297264
1805.902344	97.051300
1804.332031	81.124565
1802.759766	47.710518
1801.187500	71.551056
1799.615234	103.330269
1798.041016	87.415321
1796.468750	58.794571
1794.894531	71.492203
1793.320313	82.596214
1791.746094	101.635956
1790.171875	85.737694
1788.597656	80.957817
1787.021484	84.115318
1785.445313	79.337738
1783.871094	39.660706
1782.294922	44.410843
1780.716797	84.046074
1779.140625	53.905247
1777.564453	88.766830
1775.986328	61.807026
1774.408203	50.703014
1772.830078	74.454712
1771.251953	99.780441
1769.673828	82.341492
1768.093750	75.991867
1766.513672	75.976212
1764.935547	53.805397
1763.355469	61.705235
1761.773438	104.402725
1760.193359	56.935204
1758.613281	124.915382
1757.031250	58.492615
1755.449219	64.802780
1753.867188	99.554474
1752.285156	75.835388
1750.701172	69.501434
1749.119141	34.743553
1747.535156	89.998817
1745.951172	48.936630
1744.367188	124.683754
1742.783203	83.631340
1741.199219	85.191711
1739.613281	69.401146
1738.029297	58.348011
1736.443359	53.606026
1734.857422	104.037285
1733.271484	96.135826
1731.683594	59.875530
1730.097656	37.808319
1728.509766	103.951408
1726.921875	111.803429
1725.333984	73.995438
1723.746094	58.239700
1722.158203	69.243721
1720.568359	78.669800
1718.978516	45.619057
1717.390625	105.373985
1715.800781	72.331375
1714.208984	53.451275
1712.619141	55.012005
1711.027344	29.857489
1709.437500	75.413857
1707.845703	89.535446
1706.253906	84.805527
1704.662109	67.516373
1703.068359	40.815414
1701.476563	47.084972
1699.882813	61.197807
1698.289063	86.286758
1696.695313	87.837440
1695.101563	123.887909
1693.505859	109.751396
1691.912109	106.593590
1690.316406	95.600945
1688.720703	108.116402
1687.125000	70.496109
1685.529297	97.107880
1683.933594	103.351517
1682.335938	98.633308
1680.738281	86.090622
1679.140625	125.196808
1677.542969	123.606262
1675.945313	157.995544
1674.347656	181.422668
1672.748047	182.948776
1671.148438	139.137344
1669.548828	98.470085
1667.949219	148.455887
1666.349609	110.928268
1664.748047	79.664368
1663.148438	110.882324
1661.546875	84.315567
1659.945313	93.664558
1658.343750	131.103210
1656.742188	81.142319
1655.138672	93.606346
1653.537109	106.065208
1651.933594	93.567558
1650.330078	121.612610
1648.726563	63.911327
1647.121094	73.249016
1645.517578	96.606331
1643.912109	73.218651
1642.306641	56.070740
1640.701172	101.217850
1639.095703	49.819992
1637.490234	65.375175
1635.884766	70.030304
1634.277344	56.012623
1632.669922	68.445671
1631.062500	59.099907
1629.455078	62.197521
1627.845703	101.049995
1626.238281	82.377518
1624.628906	49.727047
1623.019531	118.077225
1621.410156	96.306160
1619.800781	93.180168
1618.191406	54.343811
1616.580078	76.065544
1614.968750	58.977356
1613.359375	71.378815
1611.746094	66.709824
1610.134766	89.961998
1608.523438	79.088089
1606.910156	82.172508
1605.298828	82.155441
1603.685547	40.294296
1602.070313	69.725639
1600.457031	60.416328
1598.843750	75.891922
1597.228516	75.876152
1595.613281	30.963421
1593.998047	91.323105
1592.382813	41.783241
1590.767578	91.285141
1589.152344	49.500294
1587.535156	64.955627
1585.917969	57.210915
1584.300781	77.295967
1582.683594	58.732719
1581.066406	72.627991
1579.447266	20.084415
1577.828125	78.776314
1576.210938	95.747360
1574.591797	91.095467
1572.970703	60.203117
1571.351563	50.930500
1569.730469	72.522285
1568.111328	57.080128
1566.490234	74.034485
1564.869141	49.346050
1563.248047	90.962837
1561.625000	89.402473
1560.003906	89.383865
1558.380859	55.468086
1556.757813	95.508476
1555.134766	56.985126
1553.511719	46.194530
1551.886719	86.211830
1550.263672	43.096935
1548.638672	44.626816
1547.013672	52.310192
1545.388672	78.448936
1543.761719	76.894699
1542.136719	75.341103
1540.509766	90.697929
1538.882813	99.900620
1537.255859	66.074326
1535.628906	89.104927
1534.001953	46.079147
1532.373047	85.996475
1530.746094	58.342583
1529.117188	42.980309
1527.488281	93.616142
1525.859375	78.252907
1524.228516	73.634438
1522.599609	79.753998
1520.968750	85.871002
1519.337891	87.386177
1517.707031	68.974693
1516.076172	65.895393
1514.443359	88.863617
1512.810547	56.677025
1511.179688	142.428741
1509.546875	56.653370
1507.914063	62.764950
1506.279297	87.240372
1504.646484	110.175362
1503.011719	105.562668
1501.376953	85.656158
1499.742188	42.819138
1498.107422	71.859970
1496.472656	90.188347
1494.835938	79.471436
1493.201172	38.199436
1491.564453	79.438232
1489.927734	65.675583
1488.289063	58.026756
1486.652344	88.548645
1485.013672	58.002506
1483.376953	57.990383
1481.738281	96.121849
1480.099609	47.288166
1478.458984	100.656982
1476.820313	106.735085
1475.179688	73.174469
1473.539063	68.586716
1471.898438	51.810238
1470.257813	65.511009
1468.617188	68.543694
1466.974609	30.457491
1465.333984	45.676678
1463.691406	56.322784
1462.048828	100.446648
1460.406250	104.990425
1458.761719	56.287434
1457.119141	34.982162
1455.474609	79.073555
1453.830078	95.780594
1452.185547	77.520439
1450.539063	88.142044
1448.894531	60.774891
1447.248047	74.433647
1445.603516	106.311516
1443.957031	78.957733
1442.308594	75.904991
1440.662109	91.066910
1439.015625	104.705009
1437.367188	100.131638
1435.718750	81.908722
1434.070313	68.242966
1432.421875	54.582932
1430.771484	109.142982
1429.123047	78.808968
1427.472656	59.094337
1425.822266	71.201324
1424.171875	86.332443
1422.521484	56.028606
1420.869141	51.474953
1419.218750	66.600677
1417.566406	49.940029
1415.914063	51.442574
1414.261719	77.147675
1412.607422	101.329605
1410.955078	99.796288
1409.300781	43.840683
1407.646484	33.251472
1405.992188	66.488991
1404.337891	87.626183
1402.683594	70.992523
1401.027344	77.018272
1399.371094	81.531639
1397.714844	75.476418
1396.058594	66.405304
1394.402344	108.640404
1392.744141	82.971771
1391.087891	114.627831
1389.429688	70.873375
1387.771484	75.381371
1386.113281	24.116972
1384.453125	72.335724
1382.794922	87.387299
1381.134766	73.811691
1379.474609	87.350586
1377.814453	63.240578
1376.154297	54.194820
1374.492188	93.315910
1372.832031	63.200714
1371.169922	84.249908
1369.507813	60.165855
1367.845703	46.618736
1366.181641	90.210838
1364.519531	33.070351
1362.855469	64.623917
1361.191406	67.615456
1359.527344	61.592236
1357.863281	81.104416
1356.199219	69.074417
1354.533203	64.555977
1352.867188	69.045357
1351.201172	39.017422
1349.535156	55.513111
1347.869141	84.002159
1346.201172	68.987251
1344.535156	94.462654
1342.867188	43.473656
1341.199219	41.965729
1339.531250	101.895317
1337.861328	56.929512
1336.193359	110.839386
1334.523438	59.900566
1332.853516	29.943975
1331.183594	95.800537
1329.511719	58.366158
1327.841797	86.782661
1326.169922	79.284691
1324.500000	79.267990
1322.828125	76.260674
1321.154297	58.304695
1319.482422	67.260468
1317.808594	47.819588
1316.136719	80.678543
1314.462891	112.029915
1312.789063	80.644531
1311.113281	94.065453
1309.439453	94.045616
1307.763672	31.341930
1306.087891	110.419701
1304.412109	83.543228
1302.736328	56.678093
1301.060547	82.016777
1299.382813	113.308365
1297.707031	46.208134
1296.029297	50.669197
1294.351563	68.537979
1292.671875	87.888855
1290.994141	75.955688
1289.314453	101.252876
1287.636719	66.991432
1285.957031	77.395981
1284.275391	69.939293
1282.595703	77.363304
1280.914063	72.884644
1279.234375	50.562340
1277.552734	96.642883
1275.871094	59.459984
1274.189453	65.392166
1272.505859	62.406609
1270.822266	47.537849
1269.140625	80.203171
1267.457031	115.824547
1265.771484	46.023106
1264.087891	93.511063
1262.404297	66.779495
1260.718750	74.183762
1259.033203	65.267906
1257.347656	100.847260
1255.662109	69.688515
1253.974609	74.121048
1252.287109	66.694832
1250.601563	87.425850
1248.914063	68.148109
1247.224609	88.870041
1245.537109	48.868183
1243.849609	69.585411
1242.160156	69.570694
1240.470703	66.596146
1238.781250	78.418861
1237.091797	90.236572
1235.400391	54.722076
1233.708984	75.411758
1232.019531	51.742214
1230.328125	66.511620
1228.634766	42.853970
1226.943359	87.167206
1225.250000	69.423576
1223.558594	64.978523
1221.865234	66.441238
1220.171875	67.903320
1218.476563	61.985554
1216.783203	116.567177
1215.087891	82.612396
1213.392578	36.872719
1211.697266	81.102791
1210.001953	57.497066
1208.306641	100.230049
1206.609375	70.735626
1204.912109	75.140678
1203.214844	69.232613
1201.517578	92.781487
1199.820313	85.399765
1198.121094	92.742149
1196.423828	64.758560
1194.724609	60.330406
1193.025391	69.144577
1191.326172	45.596325
1189.625000	73.526863
1187.923828	98.505096
1186.224609	57.326622
1184.523438	108.750511
1182.822266	67.587326
1181.119141	67.572983
1179.417969	79.307968
1177.714844	77.822784
1176.011719	61.657795
1174.308594	38.161007
1172.605469	85.110329
1170.900391	102.697556
1169.197266	44.003891
1167.492188	64.525337
1165.787109	64.511635
1164.080078	73.293106
1162.375000	92.329697
1160.667969	106.962479
1158.962891	77.641190
1157.255859	90.806252
1155.548828	60.036533
1153.839844	84.911682
1152.132813	68.793121
1150.423828	73.168617
1148.714844	96.562050
1147.005859	103.855270
1145.296875	90.671242
1143.585938	70.182167
1141.876953	109.636314
1140.166016	68.690819
1138.455078	99.361320
1136.744141	75.966026
1135.033203	84.713318
1133.320313	115.360832
1131.607422	67.157845
1129.894531	54.006771
1128.181641	70.047935
1126.468750	135.688995
1124.753906	91.898788
1123.041016	56.877617
1121.326172	88.943497
1119.611328	94.755676
1117.896484	122.427429
1116.179688	97.629654
1114.464844	103.436264
1112.748047	75.740005
1111.031250	122.323189
1109.314453	82.987343
1107.595703	90.247711
1105.878906	109.147362
1104.160156	88.754280
1102.441406	110.555542
1100.722656	122.166931
1099.003906	107.600319
1097.283203	79.956169
1095.562500	129.356049
1093.843750	68.297058
1092.123047	82.810692
1090.400391	87.150566
1088.679688	59.540192
1086.957031	60.979389
1085.236328	66.772713
1083.513672	63.855927
1081.789063	84.155769
1080.066406	88.489777
1078.341797	63.815079
1076.619141	63.801468
1074.894531	79.734818
1073.169922	108.706100
1071.443359	94.191856
1069.718750	65.195831
1067.992188	57.939480
1066.265625	110.061516
1064.539063	107.142288
1062.812500	72.377983
1061.085938	75.257034
1059.357422	105.626747
1057.628906	95.477760
1055.900391	83.886787
1054.171875	76.638794
1052.443359	109.873665
1050.712891	66.488281
1048.982422	69.364258
1047.251953	102.579376
1045.521484	53.445435
1043.791016	124.197983
1042.058594	70.748848
1040.328125	86.612732
1038.595703	82.264503
1036.863281	67.817642
1035.128906	118.294846
1033.396484	62.019402
1031.662109	77.868179
1029.927734	99.476952
1028.193359	83.600433
1026.458984	74.936081
1024.724609	157.043961
1022.988281	59.058949
1021.251953	70.567543
1019.515625	99.349373
1017.779297	74.855972
1016.042969	44.616127
1014.304688	97.846695
1012.568359	94.948524
1010.830078	97.804817
1009.089844	60.395927
1007.351563	113.577545
1005.613281	81.930817
1003.873047	81.913277
1002.132813	104.884010
1000.392578	135.027206
998.652344	81.860664
996.910156	101.944962
995.169922	99.052048
993.427734	91.854683
991.685547	104.749306
989.941406	76.034576
988.199219	119.047501
986.455078	101.813995
984.712891	100.358482
982.968750	126.137909
981.222656	114.646255
979.478516	107.457825
977.734375	118.894501
975.988281	100.250969
974.242188	65.865082
972.496094	83.029472
970.748047	111.636383
969.001953	100.165016
967.253906	138.770325
965.505859	101.552368
963.757813	100.100571
962.009766	140.110733
960.259766	87.193077
958.511719	80.028923
956.761719	142.878128
955.011719	108.564072
953.259766	91.402756
951.509766	115.656784
949.757813	112.776848
948.007813	149.861099
946.255859	132.705612
944.501953	105.571045
942.750000	112.680023
940.996094	121.211960
939.244141	146.848831
937.490234	82.673813
935.734375	108.307930
933.980469	138.205429
932.224609	115.383858
930.470703	109.662323
928.714844	143.811874
926.958984	129.545227
925.201172	96.782227
923.445313	140.873245
921.687500	150.801559
919.929688	123.744484
918.171875	135.094238
916.414063	129.378235
914.654297	106.607483
912.894531	167.693039
911.136719	149.186279
909.375000	119.323357
907.615234	75.271164
905.855469	132.051178
904.093750	126.344360
902.332031	113.543533
900.570313	119.195053
898.808594	107.819939
897.044922	127.654022
895.283203	116.281967
893.519531	144.612289
891.755859	131.823990
889.992188	123.292664
888.226563	137.434647
886.462891	135.988495
884.697266	103.385651
882.931641	110.443069
881.166016	118.913071
879.398438	130.210068
877.632813	106.126648
875.865234	89.127174
874.097656	120.225044
872.330078	117.370918
870.562500	114.518021
868.792969	115.906837
867.023438	79.138832
865.253906	114.443985
863.484375	144.083588
861.714844	94.622734
859.943359	94.602333
858.173828	111.521980
856.402344	119.966125
854.628906	81.841583
852.857422	104.396049
851.085938	149.508026
849.312500	101.530716
847.539063	104.328499
845.765625	114.172775
843.992188	129.649734
842.216797	222.611282
840.441406	273.273834
838.667969	228.148483
836.892578	240.771423
835.115234	199.895676
833.339844	163.259811
831.562500	133.675278
829.785156	137.866837
828.007813	150.495560
826.230469	136.401093
824.451172	89.977158
822.673828	95.580078
820.894531	133.502151
819.115234	87.108894
817.335938	139.063171
815.554688	89.879997
813.775391	124.962364
811.994141	95.456230
810.212891	129.118744
808.431641	131.897156
806.648438	110.825775
804.867188	95.373711
803.083984	116.386864
801.300781	142.998703
799.515625	88.303635
797.732422	119.114052
795.947266	112.083099
794.164063	145.676498
792.378906	126.038933
790.591797	82.607651
788.806641	127.384224
787.019531	72.775238
785.234375	121.732216
783.447266	123.104790
781.658203	138.462906
779.871094	107.670059
778.082031	93.666656
776.294922	116.009689
774.505859	120.176781
772.716797	79.634804
770.925781	82.411156
769.136719	104.737259
767.345703	114.487930
765.554688	110.275452
763.763672	99.086853
761.970703	73.950211
760.179688	114.388748
758.386719	103.206497
756.593750	105.972893
754.800781	139.407791
753.005859	117.077171
751.212891	93.362740
749.417969	105.881042
747.623047	112.822433
745.828125	100.264862
744.033203	66.828743
742.236328	130.844574
740.439453	94.632996
738.642578	111.308784
736.845703	126.586281
735.048828	70.928566
733.250000	57.008633
731.451172	104.261459
729.652344	82.001213
727.853516	105.605759
726.054688	102.804344
724.253906	86.114670
722.455078	97.205139
720.654297	94.407349
718.853516	113.819435
717.050781	113.794724
715.250000	91.570984
713.447266	83.228271
711.644531	88.757538
709.841797	94.284401
708.037109	109.512497
706.234375	92.857506
704.429688	65.124695
702.625000	80.349182
700.820313	90.026932
699.013672	69.236435
697.208984	88.603371
695.402344	84.431732
693.595703	83.029549
691.789063	109.298477
689.982422	74.694107
688.173828	113.399719
686.365234	127.201286
684.556641	99.527184
682.748047	45.606705
680.939453	87.048401
679.128906	103.606506
677.318359	89.772774
675.507813	96.657333
673.697266	121.485634
671.886719	103.516365
670.074219	115.913094
668.261719	71.740105
666.449219	84.138344
664.636719	66.192810
662.824219	93.752731
661.009766	102.002815
659.195313	103.358719
657.380859	121.247818
655.566406	93.671089
653.751953	89.519043
651.935547	104.645615
650.119141	99.116356
648.302734	115.610558
646.486328	148.609756
644.669922	63.282955
642.851563	81.149582
641.033203	86.632362
639.214844	61.866768
637.396484	70.100388
635.578125	101.692116
633.757813	68.695908
631.937500	75.549019
630.117188	59.052719
628.296875	82.381172
626.474609	75.499603
624.654297	72.738297
622.832031	71.350304
621.009766	91.912064
619.185547	69.947655
617.363281	86.387070
615.539063	91.851913
613.714844	95.943741
611.890625	64.405312
610.066406	89.051735
608.242188	80.813927
606.416016	124.617996
604.589844	106.792107
602.763672	102.662292
600.937500	101.271339
599.109375	76.621033
597.281250	105.330910
595.453125	67.014122
593.625000	112.121582
591.796875	94.325600
589.966797	65.603470
588.138672	120.246742
586.308594	72.405510
584.478516	68.292152
582.646484	118.802376
580.816406	90.106239
578.984375	79.166962
577.152344	79.149651
575.320313	118.698517
573.486328	100.939880
571.654297	132.284149
569.820313	76.353531
567.986328	94.057877
566.152344	110.391617
564.316406	123.993080
562.482422	107.618797
560.646484	121.214897
558.810547	93.955032
556.974609	102.102684
555.136719	100.719269
553.300781	121.108818
551.462891	106.117081
549.625000	100.653137
547.785156	111.510139
545.947266	85.653664
544.107422	144.084122
542.267578	97.847031
540.427734	81.521332
538.587891	95.087387
536.748047	134.451279
534.906250	111.339287
533.064453	128.962372
531.222656	99.075691
529.378906	104.481590
527.537109	145.156891
525.693359	109.861038
523.849609	103.056892
522.005859	109.812874
520.162109	96.234627
518.316406	123.315933
516.470703	96.192429
514.625000	124.616379
512.779297	109.692528
510.933594	94.775223
509.085938	98.815338
507.238281	106.913689
505.390625	116.361511
503.542969	74.400917
501.695313	119.015350
499.845703	86.537621
497.996094	117.611259
496.146484	93.257423
494.296875	95.939468
492.447266	106.726120
490.595703	81.040016
488.744141	98.577034
486.892578	99.905464
485.041016	101.233299
483.187500	83.667816
481.333984	110.633125
479.480469	105.213264
477.626953	101.144379
475.773438	79.549431
473.917969	99.751938
472.064453	103.773125
470.208984	99.708099
468.351563	71.396858
466.496094	79.462051
464.638672	121.186653
462.783203	109.044006
460.925781	76.717804
459.066406	119.761101
457.208984	121.080101
455.349609	64.561852
453.490234	130.440048
451.630859	118.311333
449.771484	96.778885
447.912109	99.445305
446.050781	80.613586
444.189453	89.998695
442.328125	81.921074
440.466797	95.329773
438.603516	104.705437
436.740234	119.445290
434.876953	100.633980
433.013672	91.221390
431.150391	146.190323
429.285156	100.567520
427.419922	134.060501
425.554688	109.905396
423.689453	80.400864
421.824219	113.876137
419.957031	101.796234
418.089844	79.008614
416.222656	112.462051
414.355469	92.359184
412.488281	109.736000
410.619141	141.822586
408.750000	117.713547
406.880859	108.326088
405.011719	118.998718
403.140625	110.951866
401.269531	78.852005
399.398438	94.868774
397.527344	136.260300
395.656250	125.545517
393.783203	138.870773
391.910156	84.105087
390.037109	94.764183
388.164063	81.399155
386.291016	126.741196
384.416016	138.717636
382.541016	97.347618
380.666016	153.321991
378.791016	129.295212
376.914063	118.605507
375.039063	131.902832
373.162109	119.885193
371.285156	113.199898
369.406250	163.770737
367.529297	118.474602
365.650391	143.735184
363.771484	105.116394
361.892578	148.992844
360.011719	123.689941
358.132813	107.706146
356.251953	110.341164
354.371094	126.266190
352.490234	98.332977
350.607422	70.412102
348.724609	132.823654
346.841797	138.106064
344.958984	100.901344
343.076172	123.444077
341.193359	143.322708
339.308594	124.716255
337.423828	126.015137
335.539063	123.334900
333.652344	88.834518
331.767578	94.117241
329.880859	163.012100
327.994141	148.400940
326.107422	119.224358
324.218750	96.682800
322.330078	157.571320
320.443359	109.878357
318.552734	101.912773
316.664063	108.506454
314.775391	127.003822
312.884766	133.589005
310.994141	138.848907
309.103516	128.241531
307.210938	105.742783
305.320313	137.435165
303.427734	103.053535
301.535156	79.254387
299.642578	100.366638
297.748047	137.313385
295.853516	126.722725
293.960938	75.224937
292.064453	109.513786
290.169922	116.085266
288.275391	155.625275
286.378906	143.723679
284.482422	118.644608
282.585938	93.576653
280.687500	100.144341
278.791016	96.169937
276.892578	115.905167
274.994141	131.681198
273.095703	138.234573
271.195313	122.409164
269.294922	142.121033
267.396484	117.092262
265.494141	82.867142
263.593750	151.231827
261.691406	138.050583
259.791016	141.963364
257.888672	110.391426
255.986328	119.564156
254.082031	124.792007
252.177734	114.257820
250.275391	91.911163
248.371094	111.581612
246.464844	146.992523
244.560547	108.907753
242.654297	98.388756
240.748047	95.743774
238.841797	161.285843
236.935547	119.298775
235.027344	125.825676
233.119141	148.074387
231.210938	112.668724
229.302734	117.882912
227.392578	133.570923
225.484375	116.521263
223.574219	106.023849
221.664063	134.790466
219.751953	100.743271
217.841797	130.806305
215.929688	119.007256
214.017578	94.138634
212.105469	98.039261
210.193359	137.224411
208.279297	122.821182
206.365234	113.649620
204.451172	95.339943
202.537109	108.376076
200.621094	113.573723
198.705078	127.905136
196.789063	117.437737
194.873047	131.761887
192.957031	108.255455
191.039063	100.407387
189.123047	126.459045
187.203125	123.824051
185.285156	86.005959
183.367188	122.466042
181.447266	118.531128
179.527344	110.691208
177.607422	115.874374
175.687500	93.720169
173.765625	110.617203
171.843750	127.506691
169.921875	122.275063
168.000000	119.646774
166.078125	94.915939
164.154297	136.492477
162.230469	110.469261
160.306641	109.145271
158.382813	101.326569
156.457031	125.980560
154.531250	151.922028
152.605469	98.662369
150.679688	88.257156
148.753906	89.535065
146.826172	125.840034
144.898438	86.901031
142.970703	105.035995
141.042969	129.645111
139.113281	115.358383
137.183594	86.823433
135.253906	71.257050
133.324219	80.308182
131.394531	99.715302
129.462891	99.693024
127.531250	111.320572
125.599609	67.295074
123.667969	99.626205
121.734375	81.494125
119.802734	107.341286
117.869141	118.954102
115.935547	103.415222
114.000000	102.099701
112.066406	124.042778
110.130859	73.633926
108.195313	94.282013
106.257813	109.755867
104.322266	113.604187
102.384766	116.160110
100.447266	105.811089
