*TYPE		=  Raw
*CLASS		=  ASCII CLASS
*SAMPLE		=  NaBr
*COMMENT	=   
*FNAME		=  NaBr_Theta_2-Theta.asc
*DATE		=  09-Mar-26 14:50

*GROUP_COUNT	=  1
*GONIO		=  MiniFlex 300/600 +, 150
*ATTACHMENT	=  ASC-6
*ASC		=  0, 0, 0.000000, 0.000000
*FILTER		=  None
*C_MONOCHRO	=  None, 0.000000
*SLIT_NAME	=  0, IHS
*SLIT_NAME	=  1, DS
*SLIT_NAME	=  2, SS
*SLIT_NAME	=  3, RS
*COUNTER	=  SC-70, 0
*POS_FORMAT	=  0
*SCAN_AXIS	=  2theta/theta
*MEAS_MODE	=  Continuous Scanning
*TARGET		=  29
*XRAY_CHAR	=  K-ALPHA
*WAVE_LENGTH1	=  1.54059
*WAVE_LENGTH2	=  1.54441
*THICKNESS	=  0, 0.000000
*MU		=  0, 0.000000
*SCAN_MODE	=  2theta/theta
*SPEED_DIM	=  sec./step
*XUNIT		=  deg.
*YUNIT		=  counts
*SCALE_MODE	=  1
*REP_COUNT	=  0
*SE_COUNT	=  0
*STD_MATERIAL	=  Unknown, Unknown, 0.000000, 0.000000, 0.000000, 0.000000, 0.000000, 0.000000
*LATT_CONS	=  0, Unknown, Unknown, 0.000000, 0.000000, 0.000000, 0.000000, 0.000000, 0.000000
*SEC_COUNT	=  1
*TSPEC_SIZE	=  0
*EXTRA_SIZE	=  0
*MEMO		=   

*BEGIN
*GROUP		=  0
*START		=  2.01
*STOP		=  69.99
*STEP		=  0.02
*OFFSET		=  0.000000
*SPEED		=  0.6
*SLIT_SPEC	=  0, 10.0mm, 10, 0.000000
*SLIT_SPEC	=  1, 1.250deg, 1.25, 0.000000
*SLIT_SPEC	=  2, 13.0mm(Open), 13, 0.000000
*SLIT_SPEC	=  3, 13.0mm, 13, 0.000000
*KV		=  40
*MA		=  15
*LOW		=  0.000000
*HIGH		=  0.000000
*CTEMPER	=  0, 0.000000
*CTEMPER	=  1, 0.000000
*CTEMPER	=  2, 0.000000
*PAREX		=  0, 0.000000
*PAREX		=  1, 0.000000
*PAREX		=  2, 0.000000
*PAREX		=  3, 0.000000
*PAREX		=  4, 0.000000
*PAREX		=  5, 0.000000
*PAREX		=  6, 0.000000
*PAREX		=  7, 0.000000
*PAREX		=  8, 0.000000
*PAREX		=  9, 0.000000
*PAREX		=  10, 0.000000
*PAREX		=  11, 0.000000
*PAREX		=  12, 0.000000
*PAREX		=  13, 0.000000
*PAREX		=  14, 0.000000
*PAREX		=  15, 0.000000
*FULL_SCALE	=  4154.4
*INDEX		=  0, 0, 0
*COUNT		=  3400
74, 82, 79, 73
78, 76, 80, 69
65, 70, 83, 92
82, 71, 73, 65
70, 76, 75, 75
74, 70, 60, 59
63, 60, 68, 66
67, 64, 66, 66
67, 67, 59, 59
59, 62, 67, 66
69, 61, 54, 54
58, 55, 48, 48
44, 47, 47, 38
36, 40, 42, 45
50, 45, 47, 46
41, 41, 50, 48
43, 35, 37, 38
34, 38, 39, 46
43, 43, 40, 39
42, 44, 49, 42
37, 41, 40, 37
41, 45, 44, 38
38, 42, 41, 42
36, 38, 40, 40
40, 45, 45, 42
41, 39, 42, 44
40, 37, 36, 35
42, 45, 57, 47
37, 43, 43, 45
47, 45, 40, 44
46, 41, 43, 48
47, 41, 44, 43
37, 40, 46, 47
47, 45, 38, 39
49, 48, 45, 44
45, 41, 42, 48
44, 41, 49, 48
44, 41, 41, 46
49, 54, 51, 48
47, 46, 49, 47
54, 56, 50, 42
39, 53, 55, 42
46, 50, 51, 45
42, 51, 47, 40
46, 56, 62, 56
49, 42, 47, 49
48, 56, 54, 49
48, 65, 69, 55
57, 61, 65, 72
72, 61, 56, 58
53, 53, 58, 69
73, 68, 69, 61
54, 55, 57, 63
64, 67, 70, 66
62, 55, 58, 65
59, 58, 61, 59
56, 56, 57, 68
71, 57, 53, 56
61, 59, 59, 63
62, 62, 58, 64
71, 67, 60, 52
55, 56, 53, 57
54, 61, 64, 64
59, 53, 60, 51
48, 48, 46, 56
54, 58, 56, 49
55, 62, 59, 56
60, 55, 52, 49
50, 59, 54, 44
41, 50, 56, 54
54, 50, 50, 48
46, 46, 49, 49
48, 50, 55, 57
60, 58, 51, 47
51, 52, 59, 65
60, 54, 48, 45
48, 47, 51, 47
40, 46, 59, 55
54, 61, 56, 58
59, 51, 51, 50
51, 56, 52, 50
52, 59, 55, 52
53, 51, 46, 50
45, 52, 57, 51
54, 55, 57, 49
45, 49, 48, 59
58, 51, 51, 57
60, 52, 55, 60
53, 52, 48, 44
48, 60, 58, 49
52, 56, 65, 62
53, 45, 46, 56
59, 59, 55, 57
62, 53, 54, 69
69, 53, 48, 54
57, 64, 74, 71
62, 59, 57, 64
68, 62, 62, 61
67, 65, 58, 52
48, 55, 60, 55
62, 61, 49, 54
56, 45, 43, 54
56, 64, 59, 53
56, 60, 56, 53
57, 60, 59, 61
68, 69, 55, 59
59, 63, 61, 60
61, 58, 58, 55
61, 59, 53, 60
62, 65, 61, 52
53, 53, 62, 78
67, 54, 48, 56
59, 57, 60, 51
56, 54, 54, 60
56, 61, 67, 61
54, 52, 61, 66
65, 66, 62, 62
57, 55, 62, 55
60, 60, 57, 59
59, 55, 58, 55
61, 60, 62, 55
60, 67, 76, 62
52, 59, 66, 64
62, 63, 59, 59
59, 54, 58, 60
61, 54, 45, 57
62, 62, 58, 56
55, 60, 59, 57
49, 53, 60, 60
61, 56, 53, 57
58, 56, 56, 61
67, 57, 63, 68
58, 59, 56, 66
67, 61, 55, 53
55, 66, 53, 51
62, 68, 68, 59
55, 64, 67, 66
65, 60, 63, 59
58, 60, 55, 52
56, 67, 66, 63
67, 63, 56, 52
59, 54, 61, 60
64, 70, 72, 83
57, 51, 65, 61
60, 62, 71, 68
64, 73, 65, 66
70, 59, 59, 68
81, 63, 55, 61
69, 73, 64, 63
68, 58, 67, 71
69, 65, 79, 76
65, 66, 61, 59
63, 79, 76, 62
65, 68, 70, 82
70, 70, 59, 57
60, 64, 64, 71
68, 78, 63, 63
69, 65, 60, 67
61, 70, 60, 65
66, 56, 69, 63
76, 59, 68, 80
75, 77, 65, 65
76, 82, 64, 66
68, 68, 65, 79
71, 68, 68, 71
81, 65, 66, 69
70, 66, 79, 79
70, 67, 67, 73
62, 63, 76, 62
77, 76, 73, 74
74, 75, 81, 77
64, 76, 70, 78
63, 72, 62, 57
70, 71, 63, 79
65, 73, 69, 73
72, 66, 69, 72
71, 73, 69, 70
78, 82, 70, 71
83, 94, 72, 79
74, 62, 78, 74
69, 69, 71, 69
84, 90, 99, 123
124, 114, 119, 95
97, 112, 101, 85
87, 86, 89, 84
89, 80, 71, 64
80, 91, 77, 58
69, 65, 79, 83
94, 74, 80, 67
67, 66, 72, 84
87, 83, 68, 70
69, 74, 66, 71
75, 68, 75, 81
98, 85, 81, 73
74, 80, 83, 89
87, 85, 92, 113
117, 108, 89, 92
104, 81, 92, 90
72, 71, 85, 79
108, 85, 87, 75
72, 94, 85, 74
88, 83, 76, 89
87, 91, 68, 79
79, 86, 68, 72
82, 93, 89, 81
96, 71, 89, 79
82, 87, 93, 90
95, 95, 80, 105
83, 95, 85, 72
83, 82, 89, 77
99, 97, 87, 79
79, 86, 73, 78
96, 80, 89, 91
73, 92, 81, 68
95, 80, 86, 77
92, 92, 98, 94
76, 86, 85, 67
90, 84, 82, 90
60, 76, 74, 72
80, 69, 102, 91
97, 82, 88, 86
79, 87, 84, 87
94, 75, 96, 85
93, 82, 86, 72
84, 78, 87, 93
79, 90, 73, 90
83, 79, 84, 70
81, 100, 101, 95
57, 92, 84, 83
76, 87, 72, 74
85, 81, 79, 85
79, 81, 91, 99
86, 97, 89, 83
77, 77, 78, 77
86, 87, 93, 102
91, 84, 83, 77
71, 89, 80, 85
89, 90, 85, 76
94, 77, 84, 91
83, 86, 75, 72
77, 104, 86, 92
81, 94, 93, 93
79, 90, 80, 88
81, 78, 88, 83
95, 88, 83, 86
79, 90, 82, 94
99, 95, 83, 81
87, 89, 93, 96
89, 98, 99, 105
122, 174, 257, 250
291, 269, 237, 204
164, 132, 113, 108
94, 87, 89, 93
83, 96, 102, 81
100, 91, 84, 96
95, 87, 89, 84
91, 100, 93, 88
91, 101, 80, 87
80, 83, 87, 80
79, 71, 85, 87
84, 82, 71, 98
103, 109, 98, 98
102, 127, 146, 219
293, 445, 540, 525
397, 307, 273, 218
143, 102, 71, 92
96, 73, 74, 77
89, 77, 63, 82
89, 82, 74, 71
86, 86, 68, 65
92, 83, 75, 85
75, 85, 82, 92
91, 89, 84, 88
77, 78, 91, 86
80, 88, 77, 79
78, 76, 74, 75
91, 87, 86, 73
80, 88, 76, 67
77, 83, 80, 80
107, 96, 88, 75
74, 88, 90, 79
106, 93, 87, 87
85, 77, 85, 85
83, 78, 70, 78
89, 91, 84, 84
95, 92, 90, 85
98, 95, 96, 90
88, 101, 103, 106
114, 113, 111, 110
96, 108, 107, 116
118, 123, 139, 150
153, 194, 284, 400
565, 716, 731, 752
797, 799, 845, 841
900, 916, 875, 845
848, 800, 735, 636
539, 461, 371, 286
202, 155, 156, 138
127, 122, 111, 110
93, 105, 94, 104
96, 86, 90, 90
86, 87, 90, 99
94, 109, 112, 112
113, 113, 115, 135
141, 165, 197, 214
208, 195, 156, 137
129, 109, 99, 110
108, 119, 120, 117
115, 121, 123, 103
100, 107, 101, 98
93, 83, 80, 92
101, 93, 85, 90
91, 80, 79, 71
85, 89, 95, 86
85, 83, 86, 81
84, 92, 87, 91
82, 86, 88, 82
82, 88, 80, 81
84, 81, 85, 90
85, 81, 88, 91
90, 87, 99, 93
86, 95, 90, 98
87, 82, 85, 86
87, 91, 91, 83
83, 89, 94, 84
88, 88, 95, 98
87, 79, 88, 88
91, 95, 88, 88
90, 85, 94, 90
87, 109, 109, 102
113, 107, 88, 92
100, 116, 122, 112
106, 106, 113, 117
118, 122, 122, 119
123, 137, 137, 125
129, 137, 144, 133
124, 133, 139, 123
123, 134, 152, 145
138, 162, 169, 168
178, 182, 184, 199
201, 207, 202, 205
214, 225, 236, 256
292, 349, 501, 729
1013, 1306, 1720, 2232
2659, 3045, 3278, 3462
3449, 3113, 2812, 2546
2241, 1911, 1581, 1324
1103, 901, 747, 571
431, 374, 295, 228
208, 193, 189, 187
168, 146, 139, 135
125, 114, 113, 116
104, 101, 109, 104
95, 104, 118, 118
132, 151, 137, 114
124, 127, 117, 127
152, 200, 245, 286
394, 485, 480, 421
329, 269, 251, 213
144, 119, 122, 118
110, 104, 95, 96
95, 89, 90, 106
106, 94, 86, 92
93, 93, 98, 104
98, 95, 93, 92
99, 101, 98, 104
105, 116, 112, 94
86, 77, 85, 93
90, 93, 100, 105
90, 106, 118, 109
105, 99, 103, 119
119, 116, 118, 114
115, 112, 101, 116
105, 83, 89, 105
108, 101, 100, 97
88, 84, 87, 102
103, 99, 105, 106
95, 91, 101, 97
99, 93, 90, 95
92, 89, 88, 86
88, 89, 95, 91
90, 92, 79, 81
97, 97, 78, 73
90, 94, 89, 95
99, 93, 92, 95
88, 82, 79, 83
80, 99, 89, 98
90, 105, 106, 118
124, 124, 122, 135
132, 131, 124, 127
98, 98, 100, 97
101, 90, 80, 86
97, 98, 89, 88
90, 98, 92, 91
90, 83, 79, 91
96, 79, 99, 88
77, 89, 83, 63
75, 78, 101, 86
70, 86, 107, 103
110, 111, 102, 97
100, 96, 113, 118
91, 97, 98, 93
100, 92, 94, 89
89, 90, 85, 91
106, 91, 95, 103
96, 86, 78, 74
87, 79, 83, 73
88, 85, 85, 79
80, 80, 100, 91
85, 84, 81, 75
86, 82, 87, 90
90, 94, 81, 84
92, 85, 82, 102
92, 104, 129, 129
132, 106, 110, 105
107, 105, 111, 120
103, 91, 100, 110
115, 112, 107, 97
88, 97, 88, 85
96, 85, 77, 82
89, 89, 87, 76
67, 76, 87, 79
72, 82, 75, 72
86, 89, 95, 92
87, 82, 90, 77
71, 82, 83, 86
89, 82, 85, 79
82, 72, 72, 87
89, 86, 89, 81
81, 75, 80, 95
87, 83, 81, 88
88, 92, 103, 97
88, 77, 70, 84
94, 104, 95, 93
91, 89, 87, 116
134, 136, 152, 139
120, 107, 113, 121
102, 103, 94, 91
94, 89, 100, 81
85, 89, 80, 83
82, 79, 85, 107
84, 96, 92, 81
81, 68, 98, 88
83, 78, 94, 88
84, 81, 91, 99
78, 70, 80, 77
85, 75, 86, 80
67, 89, 85, 90
80, 97, 108, 90
89, 94, 95, 97
76, 75, 82, 65
69, 87, 98, 104
93, 88, 98, 94
92, 99, 104, 74
79, 74, 72, 57
77, 92, 92, 87
73, 89, 76, 79
95, 80, 89, 78
90, 71, 73, 75
83, 81, 75, 87
78, 97, 70, 83
86, 68, 70, 81
82, 70, 76, 80
68, 87, 99, 80
105, 89, 92, 82
87, 84, 78, 78
72, 84, 84, 89
76, 88, 82, 72
74, 89, 70, 96
84, 83, 83, 84
78, 86, 69, 80
80, 68, 65, 76
74, 90, 82, 81
72, 81, 83, 69
89, 86, 77, 72
65, 70, 73, 85
81, 87, 85, 99
97, 72, 69, 70
79, 75, 82, 83
83, 75, 78, 82
86, 76, 67, 71
84, 78, 82, 91
78, 81, 76, 79
73, 79, 86, 74
86, 85, 87, 81
82, 90, 90, 86
101, 87, 100, 76
83, 93, 93, 90
91, 94, 106, 112
103, 99, 88, 100
86, 112, 99, 92
93, 99, 97, 100
100, 85, 98, 95
93, 92, 90, 86
92, 91, 100, 87
116, 110, 102, 99
110, 97, 94, 115
84, 100, 105, 87
92, 93, 105, 99
115, 118, 106, 104
97, 104, 114, 114
106, 138, 125, 141
138, 158, 117, 136
150, 146, 180, 203
273, 310, 376, 512
642, 809, 910, 1052
1126, 1163, 1233, 1267
1264, 1232, 1126, 1016
928, 808, 674, 586
508, 385, 295, 281
224, 178, 161, 132
116, 105, 122, 113
128, 126, 124, 102
84, 109, 99, 92
96, 94, 111, 114
138, 139, 148, 127
140, 113, 123, 124
112, 123, 149, 176
244, 253, 188, 132
140, 156, 139, 139
131, 108, 115, 116
107, 116, 129, 124
114, 110, 108, 114
95, 100, 94, 83
95, 110, 88, 82
78, 80, 85, 104
104, 88, 90, 88
92, 91, 89, 101
117, 79, 81, 88
80, 74, 71, 95
84, 82, 98, 86
105, 96, 98, 110
119, 96, 117, 118
126, 119, 103, 135
133, 122, 110, 110
106, 95, 100, 99
92, 105, 87, 84
78, 89, 99, 86
95, 89, 93, 89
94, 90, 87, 89
96, 95, 100, 102
88, 80, 73, 92
100, 88, 84, 96
95, 84, 98, 108
98, 99, 103, 92
89, 86, 94, 99
98, 93, 80, 84
88, 89, 87, 94
98, 80, 91, 99
96, 81, 97, 140
159, 180, 215, 220
248, 263, 207, 169
171, 161, 159, 159
148, 124, 105, 84
91, 91, 99, 92
93, 79, 85, 82
94, 79, 79, 84
86, 90, 99, 82
82, 89, 83, 95
91, 77, 80, 85
94, 86, 86, 80
93, 85, 89, 96
93, 100, 99, 84
80, 79, 86, 85
79, 71, 90, 93
79, 78, 78, 80
80, 87, 92, 99
97, 110, 127, 127
121, 106, 96, 115
119, 113, 118, 108
93, 75, 82, 82
80, 79, 86, 81
78, 72, 77, 85
99, 86, 87, 84
97, 84, 85, 89
81, 84, 99, 97
91, 86, 88, 89
88, 91, 88, 84
96, 87, 81, 79
95, 88, 92, 82
79, 88, 94, 88
82, 80, 77, 71
83, 80, 83, 81
89, 89, 89, 87
95, 91, 111, 114
115, 109, 112, 101
103, 102, 93, 85
102, 93, 90, 86
78, 93, 97, 75
78, 79, 83, 86
83, 89, 83, 78
91, 85, 90, 86
88, 91, 84, 92
87, 81, 82, 81
94, 97, 97, 97
86, 86, 87, 94
89, 88, 87, 97
85, 86, 85, 93
94, 89, 98, 99
93, 102, 117, 119
107, 94, 100, 110
117, 116, 108, 116
136, 140, 147, 198
242, 269, 312, 334
382, 457, 476, 480
520, 526, 483, 444
427, 397, 341, 286
262, 261, 230, 197
164, 143, 124, 124
119, 111, 104, 94
88, 91, 93, 84
91, 100, 101, 96
99, 102, 109, 111
112, 105, 101, 98
103, 104, 106, 99
88, 91, 89, 79
76, 90, 87, 79
76, 75, 70, 80
96, 93, 79, 83
93, 92, 84, 90
96, 82, 87, 96
94, 94, 99, 113
102, 99, 113, 106
110, 136, 192, 297
397, 481, 491, 369
234, 187, 233, 292
336, 352, 266, 167
119, 102, 99, 87
90, 95, 92, 96
94, 96, 98, 92
97, 100, 98, 96
97, 104, 100, 98
116, 123, 125, 152
184, 206, 227, 258
298, 331, 372, 402
448, 468, 436, 449
439, 417, 402, 349
309, 299, 274, 243
213, 181, 169, 146
126, 115, 99, 92
93, 94, 89, 99
102, 90, 90, 86
78, 88, 87, 85
80, 73, 81, 88
85, 79, 86, 97
91, 87, 95, 100
91, 79, 81, 84
87, 89, 94, 92
95, 97, 91, 94
87, 79, 80, 69
70, 83, 90, 100
96, 88, 92, 85
76, 76, 79, 78
78, 84, 82, 90
85, 80, 90, 98
100, 113, 129, 134
137, 116, 106, 103
103, 103, 97, 104
104, 102, 106, 108
106, 106, 100, 91
89, 95, 99, 95
87, 84, 85, 94
91, 80, 94, 96
81, 75, 81, 83
89, 95, 82, 84
88, 83, 84, 89
93, 85, 85, 95
93, 87, 85, 94
105, 98, 93, 100
105, 110, 144, 207
293, 404, 495, 507
412, 271, 186, 188
240, 277, 293, 297
235, 153, 115, 105
103, 93, 92, 89
85, 87, 89, 88
79, 84, 90, 91
86, 81, 95, 101
86, 90, 93, 85
88, 96, 93, 77
77, 85, 81, 79
79, 83, 80, 83
87, 86, 90, 87
84, 83, 77, 82
81, 77, 83, 88
83, 83, 84, 89
90, 80, 81, 88
85, 76, 74, 79
76, 78, 79, 75
76, 81, 95, 111
102, 93, 92, 76
74, 82, 84, 92
94, 90, 83, 72
74, 78, 84, 86
82, 83, 95, 94
76, 81, 86, 87
86, 80, 93, 101
95, 76, 77, 81
83, 87, 74, 74
83, 86, 85, 79
83, 77, 71, 81
85, 88, 86, 75
72, 79, 84, 82
77, 79, 79, 77
70, 65, 71, 76
70, 74, 82, 84
68, 75, 81, 74
74, 80, 77, 77
90, 93, 89, 75
75, 91, 92, 85
82, 86, 91, 84
76, 77, 80, 74
73, 74, 80, 89
84, 89, 92, 76
74, 84, 83, 75
75, 76, 63, 80
85, 85, 78, 82
74, 70, 80, 84
93, 89, 81, 79
87, 91, 82, 73
84, 95, 92, 82
80, 90, 90, 85
79, 87, 90, 80
81, 75, 85, 86
79, 94, 95, 79
75, 73, 89, 86
85, 89, 81, 79
81, 74, 88, 96
92, 85, 79, 87
96, 76, 74, 87
88, 84, 82, 78
81, 81, 83, 86
90, 83, 76, 84
84, 94, 94, 77
79, 79, 77, 80
82, 88, 94, 88
79, 82, 76, 81
93, 88, 83, 83
73, 78, 80, 91
95, 101, 102, 93
101, 94, 90, 86
86, 81, 88, 99
88, 95, 100, 96
99, 108, 105, 109
116, 119, 129, 127
135, 159, 203, 279
354, 406, 400, 376
345, 347, 371, 403
433, 437, 418, 394
317, 294, 281, 248
250, 247, 208, 180
156, 134, 112, 119
115, 99, 100, 82
86, 90, 82, 91
99, 90, 88, 90
84, 76, 90, 103
85, 90, 92, 105
94, 87, 86, 98
91, 80, 83, 86
80, 82, 82, 83
78, 72, 79, 81
78, 79, 93, 95
90, 99, 89, 83
80, 83, 85, 79
84, 81, 77, 80
83, 75, 80, 72
79, 78, 90, 90
82, 86, 81, 79
73, 61, 68, 74
86, 93, 91, 86
85, 78, 72, 84
84, 79, 83, 78
87, 91, 88, 81
77, 80, 89, 92
95, 89, 79, 72
77, 83, 96, 90
85, 81, 85, 87
78, 80, 81, 82
77, 73, 87, 88
91, 79, 69, 78
84, 91, 89, 82
85, 90, 78, 69
82, 78, 72, 89
89, 82, 87, 85
74, 74, 79, 72
79, 77, 64, 77
92, 90, 81, 79
86, 95, 93, 71
97, 97, 92, 76
72, 79, 78, 83
80, 74, 74, 84
95, 76, 74, 78
80, 82, 89, 78
74, 83, 82, 88
103, 95, 88, 87
91, 86, 77, 83
84, 96, 77, 67
74, 80, 94, 76
81, 76, 78, 103
93, 81, 83, 70
69, 90, 80, 79
94, 95, 80, 87
91, 84, 88, 95
99, 95, 104, 104
105, 99, 120, 93
84, 92, 86, 76
82, 89, 94, 85
104, 94, 90, 78
87, 88, 94, 90
91, 71, 86, 90
103, 95, 71, 76
87, 80, 76, 78
81, 82, 82, 87
80, 96, 95, 100
107, 98, 89, 84
83, 85, 83, 95
96, 98, 114, 93
88, 80, 77, 78
81, 79, 98, 97
107, 102, 108, 88
96, 81, 97, 91
79, 89, 87, 98
94, 90, 86, 93
79, 94, 115, 105
114, 107, 126, 99
140, 146, 168, 179
204, 220, 243, 255
221, 235, 224, 212
215, 175, 172, 171
168, 162, 157, 158
161, 158, 114, 115
101, 131, 114, 95
105, 90, 81, 93
102, 91, 94, 99
86, 90, 89, 96
80, 83, 94, 91
96, 90, 84, 79
76, 83, 95, 98
97, 83, 79, 64
98, 92, 108, 99
81, 99, 88, 87
89, 90, 87, 100
80, 96, 81, 75
101, 103, 95, 84
98, 100, 103, 94
109, 84, 91, 109
105, 100, 90, 110
106, 106, 123, 111
112, 106, 103, 108
122, 123, 123, 123
*END

*EOF
