*TYPE		=  Raw
*CLASS		=  ASCII CLASS
*SAMPLE		=  NaCl
*COMMENT	=   
*FNAME		=  NaCl_Theta_2-Theta.asc
*DATE		=  09-Mar-26 14:15

*GROUP_COUNT	=  1
*GONIO		=  MiniFlex 300/600 +, 150
*ATTACHMENT	=  ASC-6
*ASC		=  0, 0, 0.000000, 0.000000
*FILTER		=  None
*C_MONOCHRO	=  None, 0.000000
*SLIT_NAME	=  0, IHS
*SLIT_NAME	=  1, DS
*SLIT_NAME	=  2, SS
*SLIT_NAME	=  3, RS
*COUNTER	=  SC-70, 0
*POS_FORMAT	=  0
*SCAN_AXIS	=  2theta/theta
*MEAS_MODE	=  Continuous Scanning
*TARGET		=  29
*XRAY_CHAR	=  K-ALPHA
*WAVE_LENGTH1	=  1.54059
*WAVE_LENGTH2	=  1.54441
*THICKNESS	=  0, 0.000000
*MU		=  0, 0.000000
*SCAN_MODE	=  2theta/theta
*SPEED_DIM	=  sec./step
*XUNIT		=  deg.
*YUNIT		=  counts
*SCALE_MODE	=  1
*REP_COUNT	=  0
*SE_COUNT	=  0
*STD_MATERIAL	=  Unknown, Unknown, 0.000000, 0.000000, 0.000000, 0.000000, 0.000000, 0.000000
*LATT_CONS	=  0, Unknown, Unknown, 0.000000, 0.000000, 0.000000, 0.000000, 0.000000, 0.000000
*SEC_COUNT	=  1
*TSPEC_SIZE	=  0
*EXTRA_SIZE	=  0
*MEMO		=   

*BEGIN
*GROUP		=  0
*START		=  2.01
*STOP		=  69.99
*STEP		=  0.02
*OFFSET		=  0.000000
*SPEED		=  0.6
*SLIT_SPEC	=  0, 10.0mm, 10, 0.000000
*SLIT_SPEC	=  1, 1.250deg, 1.25, 0.000000
*SLIT_SPEC	=  2, 13.0mm(Open), 13, 0.000000
*SLIT_SPEC	=  3, 13.0mm, 13, 0.000000
*KV		=  40
*MA		=  15
*LOW		=  0.000000
*HIGH		=  0.000000
*CTEMPER	=  0, 0.000000
*CTEMPER	=  1, 0.000000
*CTEMPER	=  2, 0.000000
*PAREX		=  0, 0.000000
*PAREX		=  1, 0.000000
*PAREX		=  2, 0.000000
*PAREX		=  3, 0.000000
*PAREX		=  4, 0.000000
*PAREX		=  5, 0.000000
*PAREX		=  6, 0.000000
*PAREX		=  7, 0.000000
*PAREX		=  8, 0.000000
*PAREX		=  9, 0.000000
*PAREX		=  10, 0.000000
*PAREX		=  11, 0.000000
*PAREX		=  12, 0.000000
*PAREX		=  13, 0.000000
*PAREX		=  14, 0.000000
*PAREX		=  15, 0.000000
*FULL_SCALE	=  3379.2
*INDEX		=  0, 0, 0
*COUNT		=  3400
80, 85, 71, 73
71, 73, 76, 74
86, 88, 76, 69
70, 67, 67, 69
65, 70, 78, 71
74, 63, 61, 74
68, 67, 60, 60
59, 60, 54, 56
57, 56, 51, 59
59, 54, 40, 42
46, 51, 54, 51
43, 45, 47, 43
48, 39, 35, 40
41, 43, 39, 37
37, 45, 37, 32
45, 42, 35, 41
36, 30, 36, 32
31, 36, 39, 36
30, 32, 33, 32
38, 34, 34, 36
30, 31, 39, 44
34, 35, 34, 35
35, 29, 35, 29
30, 35, 36, 29
30, 34, 30, 34
36, 34, 26, 27
38, 33, 26, 31
32, 26, 29, 34
33, 29, 33, 29
22, 28, 33, 26
31, 40, 31, 28
32, 32, 30, 39
37, 25, 29, 33
33, 28, 32, 35
27, 29, 33, 31
34, 27, 27, 35
28, 31, 31, 37
39, 31, 26, 28
32, 31, 28, 31
29, 28, 32, 32
36, 38, 33, 33
30, 30, 35, 38
37, 31, 23, 23
28, 33, 44, 42
30, 33, 38, 38
39, 41, 39, 39
37, 32, 29, 30
38, 36, 40, 42
41, 47, 43, 37
48, 51, 51, 48
48, 52, 59, 55
46, 42, 46, 48
49, 48, 50, 59
62, 62, 60, 54
56, 71, 74, 71
73, 80, 74, 80
90, 82, 78, 82
85, 81, 76, 73
78, 85, 87, 93
93, 86, 89, 90
97, 96, 103, 110
104, 95, 94, 95
93, 102, 103, 90
91, 97, 90, 97
102, 101, 103, 96
93, 97, 103, 90
83, 80, 70, 77
76, 70, 68, 65
57, 53, 47, 43
46, 42, 36, 36
32, 26, 27, 32
33, 31, 34, 34
39, 38, 34, 35
32, 31, 34, 40
36, 35, 37, 34
40, 41, 34, 33
31, 26, 28, 31
37, 37, 33, 34
40, 38, 29, 29
35, 37, 32, 33
37, 40, 34, 29
35, 37, 34, 35
34, 36, 40, 43
42, 43, 43, 37
39, 43, 35, 39
45, 42, 38, 43
40, 35, 37, 42
44, 40, 42, 44
48, 47, 41, 43
40, 41, 39, 38
43, 41, 42, 47
41, 38, 40, 36
43, 52, 54, 51
46, 43, 46, 48
42, 42, 49, 48
44, 45, 43, 40
46, 47, 47, 47
46, 43, 51, 52
57, 55, 48, 48
54, 52, 42, 46
59, 48, 40, 48
52, 49, 47, 54
54, 49, 54, 45
48, 53, 52, 53
51, 41, 51, 40
44, 57, 46, 43
38, 42, 44, 42
38, 35, 32, 37
36, 30, 28, 31
31, 30, 32, 29
26, 37, 38, 36
33, 42, 37, 31
29, 23, 25, 31
33, 32, 30, 31
35, 41, 37, 36
27, 26, 37, 39
37, 36, 36, 40
36, 31, 37, 44
31, 29, 40, 44
31, 31, 38, 30
27, 29, 29, 30
31, 39, 38, 36
31, 28, 38, 31
33, 36, 33, 34
33, 33, 33, 37
43, 37, 32, 35
27, 31, 28, 28
33, 38, 36, 46
33, 31, 36, 30
40, 43, 39, 26
35, 32, 38, 32
37, 43, 35, 32
37, 36, 35, 34
40, 37, 39, 34
35, 34, 40, 41
35, 28, 34, 37
35, 34, 30, 35
37, 30, 31, 38
39, 42, 34, 35
37, 27, 32, 31
32, 35, 26, 30
26, 30, 36, 34
37, 35, 34, 34
31, 28, 24, 25
36, 31, 35, 33
36, 35, 45, 29
33, 29, 32, 38
32, 33, 31, 31
34, 33, 36, 45
30, 42, 36, 44
37, 34, 37, 27
33, 38, 41, 43
36, 36, 34, 38
37, 38, 30, 33
38, 38, 39, 35
38, 40, 42, 53
48, 45, 53, 36
47, 52, 48, 41
44, 34, 39, 36
38, 37, 47, 34
35, 42, 45, 45
38, 33, 35, 42
43, 40, 38, 46
31, 37, 45, 38
29, 40, 39, 36
38, 36, 32, 47
48, 35, 40, 40
43, 42, 39, 44
35, 38, 45, 40
37, 39, 53, 40
39, 44, 44, 46
51, 54, 50, 43
48, 38, 39, 43
51, 58, 48, 40
36, 46, 47, 39
40, 50, 61, 45
36, 41, 35, 43
37, 43, 49, 37
58, 55, 46, 47
50, 43, 42, 51
47, 48, 40, 41
40, 48, 25, 38
29, 49, 53, 46
38, 48, 43, 40
46, 54, 40, 54
42, 45, 46, 49
43, 42, 47, 48
37, 50, 54, 40
38, 58, 40, 46
46, 43, 41, 36
48, 47, 46, 43
57, 46, 49, 45
35, 43, 42, 44
40, 44, 43, 54
42, 41, 45, 51
43, 43, 43, 53
36, 43, 43, 44
62, 60, 37, 53
51, 48, 43, 46
45, 29, 37, 42
35, 49, 41, 42
35, 29, 38, 47
46, 38, 38, 36
45, 45, 35, 42
39, 44, 39, 46
37, 36, 38, 31
47, 42, 28, 30
53, 38, 50, 39
35, 50, 35, 45
39, 33, 37, 39
33, 35, 36, 40
34, 35, 44, 37
40, 37, 47, 38
37, 38, 43, 36
49, 35, 32, 37
34, 36, 35, 48
35, 33, 42, 31
43, 38, 38, 29
27, 36, 27, 35
41, 32, 34, 47
32, 48, 35, 47
49, 31, 42, 30
35, 28, 47, 35
39, 43, 28, 43
40, 35, 37, 44
41, 36, 44, 43
34, 34, 36, 35
33, 37, 36, 42
38, 29, 41, 41
32, 36, 39, 33
30, 42, 36, 28
30, 53, 42, 34
45, 40, 33, 27
51, 30, 33, 40
45, 33, 37, 35
35, 43, 33, 31
31, 30, 36, 37
32, 33, 32, 38
44, 41, 37, 43
35, 39, 34, 36
37, 30, 39, 45
33, 39, 34, 38
31, 27, 34, 35
31, 34, 38, 36
33, 30, 28, 22
23, 39, 39, 40
34, 32, 23, 30
37, 34, 31, 34
36, 37, 32, 26
38, 29, 29, 29
36, 39, 30, 27
35, 27, 38, 29
18, 27, 34, 30
41, 40, 26, 25
30, 31, 38, 34
25, 30, 30, 28
39, 28, 21, 30
33, 30, 23, 30
31, 32, 29, 23
25, 22, 25, 30
45, 36, 38, 28
27, 31, 37, 26
25, 29, 32, 25
33, 26, 23, 21
19, 31, 25, 26
29, 26, 31, 27
32, 31, 31, 25
31, 26, 32, 27
19, 29, 30, 26
26, 28, 36, 25
27, 22, 26, 28
33, 28, 21, 22
29, 27, 26, 29
23, 30, 28, 25
29, 26, 28, 31
27, 23, 25, 24
22, 34, 27, 31
30, 21, 21, 29
30, 23, 29, 32
21, 20, 23, 22
24, 19, 27, 29
33, 33, 27, 21
21, 33, 23, 27
23, 25, 28, 31
25, 20, 22, 19
24, 27, 27, 26
21, 22, 23, 23
20, 24, 24, 27
26, 29, 32, 25
23, 23, 25, 27
30, 20, 17, 19
20, 26, 29, 33
28, 20, 22, 25
28, 27, 22, 22
24, 27, 25, 25
29, 22, 24, 24
26, 26, 25, 28
27, 20, 29, 28
26, 30, 24, 16
13, 15, 17, 26
20, 20, 25, 30
30, 29, 26, 21
21, 27, 28, 25
28, 23, 20, 21
22, 21, 25, 28
19, 21, 29, 25
22, 24, 23, 23
27, 26, 29, 27
28, 25, 24, 25
23, 21, 28, 26
24, 26, 30, 37
37, 38, 32, 27
35, 32, 29, 33
30, 35, 40, 41
52, 63, 83, 101
120, 160, 176, 228
292, 334, 348, 353
323, 303, 269, 217
179, 143, 112, 85
66, 52, 37, 34
33, 28, 27, 29
28, 26, 26, 24
26, 28, 26, 23
24, 22, 16, 23
23, 20, 24, 21
15, 17, 22, 23
21, 19, 21, 24
24, 21, 20, 23
22, 19, 18, 27
28, 22, 26, 33
42, 42, 38, 42
51, 49, 49, 53
51, 39, 40, 39
33, 29, 25, 23
18, 18, 20, 22
26, 27, 25, 25
26, 25, 24, 19
18, 19, 19, 18
16, 16, 21, 27
24, 21, 20, 24
23, 19, 16, 15
19, 19, 19, 24
22, 18, 21, 22
19, 26, 23, 23
28, 24, 26, 23
23, 26, 26, 20
19, 26, 27, 19
21, 28, 26, 23
17, 15, 22, 23
22, 20, 24, 27
21, 18, 18, 25
28, 27, 26, 26
28, 25, 23, 22
20, 21, 22, 20
21, 21, 20, 23
25, 24, 26, 31
31, 34, 27, 25
33, 38, 36, 38
41, 38, 33, 30
36, 36, 39, 40
37, 39, 48, 54
53, 44, 44, 49
45, 46, 48, 46
52, 66, 70, 69
77, 83, 78, 81
87, 79, 82, 90
92, 106, 130, 134
150, 174, 217, 284
359, 434, 523, 637
798, 962, 1165, 1482
1788, 2134, 2497, 2788
2816, 2692, 2431, 2009
1629, 1324, 984, 682
464, 321, 233, 177
143, 126, 120, 102
96, 86, 72, 56
54, 51, 41, 39
49, 52, 38, 38
34, 32, 38, 36
33, 32, 27, 31
39, 31, 28, 30
27, 30, 30, 24
30, 26, 23, 30
31, 27, 27, 33
28, 23, 33, 37
25, 20, 23, 23
25, 33, 30, 22
30, 32, 29, 26
24, 27, 26, 29
37, 30, 25, 27
31, 30, 31, 23
22, 25, 29, 24
21, 22, 26, 30
21, 25, 27, 25
22, 20, 19, 21
21, 27, 33, 24
21, 26, 22, 24
19, 22, 25, 30
27, 21, 21, 27
27, 30, 29, 17
22, 23, 17, 19
25, 28, 21, 25
26, 26, 26, 27
31, 26, 23, 26
20, 24, 17, 16
17, 24, 22, 20
19, 20, 23, 19
23, 14, 23, 22
18, 25, 29, 25
25, 23, 16, 22
15, 20, 20, 18
24, 19, 27, 26
27, 23, 22, 18
22, 19, 16, 24
25, 20, 21, 22
19, 20, 17, 18
20, 20, 17, 18
27, 25, 17, 16
15, 19, 17, 21
18, 14, 15, 15
13, 16, 19, 18
13, 20, 22, 24
25, 19, 18, 17
18, 23, 18, 19
14, 20, 25, 20
8, 15, 20, 18
19, 21, 20, 18
25, 17, 16, 21
15, 21, 17, 16
19, 17, 23, 21
17, 16, 18, 20
23, 20, 18, 19
18, 17, 17, 17
21, 18, 14, 13
16, 14, 16, 16
14, 22, 17, 21
16, 14, 18, 16
17, 23, 14, 14
22, 19, 16, 15
15, 21, 14, 19
11, 14, 20, 21
17, 19, 18, 12
15, 12, 14, 15
18, 19, 18, 14
13, 16, 19, 18
14, 14, 12, 11
12, 11, 17, 20
11, 14, 18, 17
20, 14, 18, 19
15, 18, 14, 14
14, 20, 18, 19
16, 13, 13, 18
15, 17, 13, 20
18, 12, 13, 10
8, 11, 18, 12
14, 20, 16, 15
16, 18, 20, 15
13, 16, 15, 19
11, 15, 11, 22
19, 22, 15, 11
18, 18, 14, 16
8, 16, 13, 10
18, 18, 22, 16
24, 13, 18, 13
10, 12, 19, 19
18, 18, 20, 18
15, 18, 12, 13
13, 16, 17, 11
31, 17, 23, 16
14, 11, 18, 15
15, 14, 18, 16
17, 11, 9, 12
21, 19, 12, 13
9, 21, 18, 15
19, 13, 14, 18
15, 10, 20, 20
17, 13, 14, 20
15, 18, 10, 14
22, 11, 20, 9
14, 19, 10, 22
16, 15, 26, 20
12, 20, 8, 20
18, 13, 23, 21
15, 22, 14, 18
30, 23, 22, 23
35, 26, 35, 30
20, 20, 16, 5
14, 20, 10, 11
21, 12, 16, 9
9, 13, 17, 14
9, 16, 14, 12
11, 10, 17, 14
16, 15, 14, 21
15, 16, 14, 20
15, 9, 10, 14
17, 16, 16, 9
13, 9, 13, 12
11, 13, 13, 14
12, 22, 21, 10
15, 12, 14, 17
23, 16, 13, 10
11, 18, 14, 15
16, 20, 14, 18
14, 10, 16, 11
15, 10, 14, 9
13, 11, 19, 15
12, 16, 18, 21
16, 10, 12, 13
21, 12, 18, 10
11, 14, 17, 15
19, 15, 13, 11
15, 9, 13, 13
11, 15, 13, 17
18, 14, 14, 14
21, 16, 18, 18
21, 18, 12, 13
12, 11, 17, 19
20, 16, 12, 19
12, 9, 17, 15
15, 15, 23, 21
15, 21, 19, 18
24, 19, 15, 18
10, 17, 16, 20
13, 25, 12, 15
19, 18, 15, 23
22, 19, 17, 22
21, 18, 24, 20
21, 26, 20, 30
20, 20, 19, 21
23, 19, 25, 23
20, 21, 22, 20
21, 13, 14, 24
29, 21, 15, 14
25, 22, 24, 20
30, 32, 38, 31
27, 26, 38, 50
37, 43, 52, 50
47, 57, 69, 65
70, 66, 79, 104
117, 148, 177, 203
251, 290, 353, 374
432, 544, 693, 841
1006, 1134, 1236, 1261
1140, 1140, 999, 934
797, 692, 582, 493
375, 271, 198, 166
129, 107, 88, 77
62, 56, 56, 48
45, 40, 43, 27
25, 24, 25, 22
26, 31, 25, 21
19, 23, 16, 19
18, 20, 13, 16
19, 21, 20, 23
11, 19, 24, 20
16, 14, 19, 16
13, 15, 19, 17
16, 15, 13, 17
17, 17, 19, 18
17, 17, 21, 22
22, 19, 22, 25
22, 18, 13, 12
20, 13, 13, 20
17, 16, 17, 28
23, 20, 17, 15
19, 15, 18, 22
14, 15, 18, 17
13, 16, 13, 15
17, 17, 14, 12
16, 16, 17, 16
14, 14, 13, 18
15, 14, 14, 16
15, 13, 16, 12
7, 11, 10, 12
18, 18, 18, 13
14, 15, 14, 16
17, 12, 16, 14
14, 13, 9, 12
15, 14, 16, 14
12, 11, 18, 19
17, 14, 18, 16
16, 17, 14, 15
12, 11, 13, 12
13, 15, 18, 15
12, 15, 14, 12
15, 12, 10, 12
12, 15, 17, 16
16, 10, 12, 14
14, 11, 13, 12
14, 17, 14, 14
16, 11, 11, 15
12, 9, 10, 11
12, 15, 18, 16
16, 20, 17, 12
15, 13, 12, 12
11, 17, 16, 13
11, 12, 13, 20
18, 13, 13, 16
18, 14, 10, 11
15, 19, 16, 14
13, 12, 11, 13
15, 14, 15, 12
12, 13, 13, 8
5, 9, 11, 11
12, 12, 12, 16
15, 10, 13, 15
14, 14, 15, 15
15, 17, 12, 13
11, 13, 16, 11
10, 13, 18, 18
16, 13, 13, 15
18, 16, 11, 13
19, 13, 12, 13
11, 16, 14, 13
16, 14, 8, 11
12, 10, 9, 8
11, 14, 13, 15
16, 12, 12, 16
10, 9, 10, 12
12, 13, 15, 16
14, 14, 14, 11
10, 13, 15, 13
12, 11, 12, 11
12, 13, 17, 15
13, 14, 15, 12
10, 11, 11, 11
11, 13, 12, 10
12, 12, 15, 19
16, 12, 11, 11
13, 12, 13, 9
8, 14, 14, 12
16, 16, 13, 13
12, 12, 11, 13
12, 11, 10, 11
14, 12, 11, 12
12, 12, 11, 9
12, 12, 12, 15
14, 11, 13, 14
14, 12, 10, 12
12, 11, 11, 13
12, 10, 13, 14
15, 14, 12, 16
19, 19, 17, 13
9, 9, 12, 15
13, 11, 15, 19
25, 29, 28, 29
27, 28, 33, 36
39, 42, 43, 44
45, 37, 29, 33
34, 29, 28, 31
26, 24, 23, 18
15, 16, 12, 12
13, 10, 11, 11
12, 16, 17, 15
13, 10, 9, 13
18, 18, 14, 13
11, 12, 13, 12
13, 14, 11, 8
9, 13, 15, 15
15, 14, 10, 11
17, 19, 16, 15
13, 14, 16, 14
12, 12, 11, 14
15, 13, 13, 12
11, 12, 15, 14
14, 15, 14, 15
16, 13, 11, 11
11, 12, 16, 16
16, 15, 14, 13
13, 11, 14, 14
14, 15, 15, 17
13, 16, 19, 18
18, 16, 17, 20
20, 25, 28, 22
22, 26, 24, 35
45, 38, 32, 45
59, 56, 53, 53
65, 73, 92, 120
119, 135, 179, 225
271, 332, 386, 459
500, 505, 513, 450
411, 391, 353, 356
329, 288, 245, 205
177, 149, 125, 95
77, 62, 54, 39
36, 35, 28, 26
23, 22, 23, 18
18, 19, 18, 21
16, 12, 15, 14
12, 15, 16, 16
17, 16, 15, 12
13, 14, 12, 11
12, 14, 13, 14
15, 12, 11, 11
10, 8, 10, 14
12, 12, 14, 13
11, 9, 11, 14
11, 14, 19, 14
13, 17, 15, 15
12, 11, 10, 8
12, 15, 15, 15
12, 11, 9, 9
13, 12, 11, 13
12, 12, 12, 10
15, 13, 12, 14
10, 9, 10, 13
15, 14, 11, 9
7, 11, 10, 7
11, 12, 10, 9
9, 9, 12, 15
14, 13, 12, 10
13, 13, 10, 7
5, 7, 14, 15
10, 10, 13, 12
10, 10, 11, 10
8, 7, 10, 11
8, 9, 10, 11
13, 14, 13, 10
12, 11, 8, 10
11, 11, 10, 12
12, 11, 13, 8
9, 12, 12, 9
7, 5, 6, 9
7, 9, 11, 10
8, 7, 8, 7
8, 8, 11, 13
14, 14, 13, 10
11, 11, 8, 14
13, 10, 9, 7
11, 11, 10, 10
13, 13, 10, 10
11, 7, 5, 7
8, 9, 13, 13
12, 13, 12, 6
6, 7, 8, 10
7, 9, 11, 12
11, 13, 12, 9
12, 10, 12, 14
9, 7, 8, 12
11, 10, 10, 9
9, 8, 8, 7
7, 8, 9, 8
13, 13, 7, 7
9, 8, 9, 11
6, 7, 10, 9
8, 13, 12, 9
11, 9, 6, 6
8, 9, 10, 10
10, 11, 7, 9
10, 9, 9, 5
4, 9, 15, 14
13, 13, 16, 13
11, 10, 10, 7
11, 12, 10, 10
10, 8, 8, 9
10, 6, 5, 8
7, 10, 10, 8
10, 8, 10, 9
8, 9, 10, 6
7, 11, 10, 10
10, 9, 11, 12
9, 13, 11, 8
10, 10, 11, 9
10, 9, 7, 6
9, 9, 6, 3
6, 6, 6, 8
7, 9, 11, 10
11, 14, 10, 10
10, 13, 10, 12
9, 9, 11, 12
11, 11, 11, 7
6, 11, 15, 15
12, 12, 13, 12
12, 12, 11, 9
9, 10, 9, 6
10, 12, 13, 11
12, 9, 9, 9
5, 11, 12, 14
13, 10, 12, 7
8, 12, 8, 13
10, 9, 11, 10
10, 11, 12, 14
12, 9, 9, 12
9, 12, 12, 8
9, 13, 11, 11
11, 7, 10, 11
11, 12, 12, 10
9, 11, 10, 9
13, 12, 9, 7
11, 11, 12, 12
11, 7, 10, 11
11, 11, 12, 10
9, 6, 11, 13
14, 12, 11, 11
11, 13, 9, 13
13, 15, 12, 18
17, 13, 17, 14
17, 25, 19, 21
20, 25, 31, 34
31, 44, 38, 42
60, 63, 74, 88
92, 86, 115, 112
128, 122, 118, 116
93, 76, 68, 67
78, 69, 63, 68
42, 44, 26, 29
28, 23, 22, 10
17, 12, 14, 12
15, 16, 13, 14
13, 14, 14, 14
10, 12, 10, 18
13, 13, 11, 16
19, 9, 15, 12
10, 15, 14, 7
9, 12, 14, 13
5, 7, 9, 6
6, 10, 13, 16
8, 11, 11, 8
13, 5, 10, 13
13, 9, 6, 6
11, 9, 8, 11
12, 10, 12, 11
11, 11, 12, 8
8, 6, 10, 16
10, 7, 11, 7
8, 11, 7, 11
11, 8, 9, 11
3, 8, 13, 7
10, 14, 11, 6
7, 8, 11, 7
7, 15, 9, 10
11, 9, 8, 9
17, 9, 14, 5
8, 9, 10, 10
9, 7, 3, 14
7, 4, 11, 13
9, 7, 8, 8
8, 11, 11, 7
7, 10, 19, 12
9, 8, 5, 7
4, 6, 5, 13
7, 10, 6, 6
9, 7, 8, 7
13, 8, 8, 11
14, 11, 2, 8
5, 12, 10, 6
11, 6, 13, 15
11, 6, 7, 6
9, 9, 10, 11
12, 12, 12, 12
*END

*EOF
