Created as New Dataset;Sample 008 By Administrator Date maandag, maart 02 2026
cm-1;%T
4000,00;97,96
3999,00;97,94
3998,00;97,93
3997,00;97,92
3996,00;97,92
3995,00;97,94
3994,00;97,95
3993,00;97,95
3992,00;97,94
3991,00;97,94
3990,00;97,94
3989,00;97,94
3988,00;97,94
3987,00;97,93
3986,00;97,92
3985,00;97,92
3984,00;97,91
3983,00;97,91
3982,00;97,90
3981,00;97,89
3980,00;97,88
3979,00;97,86
3978,00;97,85
3977,00;97,85
3976,00;97,85
3975,00;97,85
3974,00;97,87
3973,00;97,88
3972,00;97,89
3971,00;97,90
3970,00;97,90
3969,00;97,90
3968,00;97,90
3967,00;97,90
3966,00;97,90
3965,00;97,90
3964,00;97,89
3963,00;97,88
3962,00;97,86
3961,00;97,85
3960,00;97,85
3959,00;97,85
3958,00;97,85
3957,00;97,85
3956,00;97,84
3955,00;97,82
3954,00;97,81
3953,00;97,81
3952,00;97,81
3951,00;97,81
3950,00;97,82
3949,00;97,82
3948,00;97,83
3947,00;97,84
3946,00;97,84
3945,00;97,86
3944,00;97,88
3943,00;97,89
3942,00;97,88
3941,00;97,85
3940,00;97,81
3939,00;97,79
3938,00;97,79
3937,00;97,79
3936,00;97,79
3935,00;97,78
3934,00;97,75
3933,00;97,71
3932,00;97,69
3931,00;97,69
3930,00;97,71
3929,00;97,74
3928,00;97,75
3927,00;97,75
3926,00;97,75
3925,00;97,75
3924,00;97,74
3923,00;97,73
3922,00;97,72
3921,00;97,71
3920,00;97,69
3919,00;97,67
3918,00;97,67
3917,00;97,70
3916,00;97,75
3915,00;97,80
3914,00;97,84
3913,00;97,87
3912,00;97,88
3911,00;97,88
3910,00;97,88
3909,00;97,88
3908,00;97,88
3907,00;97,86
3906,00;97,81
3905,00;97,77
3904,00;97,73
3903,00;97,73
3902,00;97,75
3901,00;97,78
3900,00;97,82
3899,00;97,85
3898,00;97,86
3897,00;97,84
3896,00;97,83
3895,00;97,82
3894,00;97,82
3893,00;97,85
3892,00;97,89
3891,00;97,92
3890,00;97,92
3889,00;97,91
3888,00;97,90
3887,00;97,89
3886,00;97,90
3885,00;97,91
3884,00;97,93
3883,00;97,96
3882,00;98,00
3881,00;98,04
3880,00;98,07
3879,00;98,06
3878,00;98,02
3877,00;98,01
3876,00;98,02
3875,00;98,04
3874,00;98,06
3873,00;98,05
3872,00;98,01
3871,00;97,97
3870,00;97,93
3869,00;97,90
3868,00;97,87
3867,00;97,86
3866,00;97,86
3865,00;97,87
3864,00;97,90
3863,00;97,95
3862,00;97,99
3861,00;97,99
3860,00;97,98
3859,00;97,96
3858,00;97,96
3857,00;97,96
3856,00;97,95
3855,00;97,93
3854,00;97,91
3853,00;97,92
3852,00;97,92
3851,00;97,93
3850,00;97,95
3849,00;97,97
3848,00;97,98
3847,00;97,98
3846,00;97,99
3845,00;98,01
3844,00;98,02
3843,00;98,02
3842,00;98,00
3841,00;97,99
3840,00;97,97
3839,00;97,98
3838,00;98,00
3837,00;98,03
3836,00;98,05
3835,00;98,04
3834,00;98,04
3833,00;98,04
3832,00;98,03
3831,00;98,03
3830,00;98,02
3829,00;98,02
3828,00;98,03
3827,00;98,03
3826,00;98,04
3825,00;98,03
3824,00;98,01
3823,00;97,98
3822,00;97,97
3821,00;97,97
3820,00;97,97
3819,00;97,98
3818,00;98,00
3817,00;98,03
3816,00;98,07
3815,00;98,10
3814,00;98,11
3813,00;98,12
3812,00;98,13
3811,00;98,14
3810,00;98,13
3809,00;98,12
3808,00;98,10
3807,00;98,07
3806,00;98,04
3805,00;98,03
3804,00;98,03
3803,00;98,05
3802,00;98,08
3801,00;98,09
3800,00;98,07
3799,00;98,04
3798,00;98,03
3797,00;98,04
3796,00;98,07
3795,00;98,09
3794,00;98,09
3793,00;98,10
3792,00;98,12
3791,00;98,14
3790,00;98,15
3789,00;98,15
3788,00;98,13
3787,00;98,11
3786,00;98,11
3785,00;98,12
3784,00;98,14
3783,00;98,15
3782,00;98,16
3781,00;98,18
3780,00;98,19
3779,00;98,17
3778,00;98,14
3777,00;98,11
3776,00;98,09
3775,00;98,09
3774,00;98,08
3773,00;98,06
3772,00;98,05
3771,00;98,05
3770,00;98,07
3769,00;98,09
3768,00;98,11
3767,00;98,13
3766,00;98,13
3765,00;98,12
3764,00;98,11
3763,00;98,09
3762,00;98,07
3761,00;98,07
3760,00;98,08
3759,00;98,09
3758,00;98,09
3757,00;98,08
3756,00;98,06
3755,00;98,04
3754,00;98,02
3753,00;97,97
3752,00;97,89
3751,00;97,81
3750,00;97,77
3749,00;97,76
3748,00;97,77
3747,00;97,81
3746,00;97,85
3745,00;97,90
3744,00;97,92
3743,00;97,91
3742,00;97,90
3741,00;97,90
3740,00;97,90
3739,00;97,89
3738,00;97,88
3737,00;97,88
3736,00;97,89
3735,00;97,91
3734,00;97,93
3733,00;97,93
3732,00;97,92
3731,00;97,92
3730,00;97,91
3729,00;97,92
3728,00;97,92
3727,00;97,91
3726,00;97,92
3725,00;97,94
3724,00;97,98
3723,00;98,03
3722,00;98,07
3721,00;98,09
3720,00;98,10
3719,00;98,10
3718,00;98,09
3717,00;98,08
3716,00;98,07
3715,00;98,06
3714,00;98,05
3713,00;98,01
3712,00;97,98
3711,00;97,97
3710,00;97,97
3709,00;97,98
3708,00;97,98
3707,00;98,00
3706,00;98,03
3705,00;98,07
3704,00;98,11
3703,00;98,16
3702,00;98,19
3701,00;98,18
3700,00;98,14
3699,00;98,09
3698,00;98,06
3697,00;98,06
3696,00;98,09
3695,00;98,12
3694,00;98,15
3693,00;98,16
3692,00;98,14
3691,00;98,12
3690,00;98,10
3689,00;98,09
3688,00;98,08
3687,00;98,04
3686,00;98,02
3685,00;98,02
3684,00;98,03
3683,00;98,05
3682,00;98,07
3681,00;98,08
3680,00;98,10
3679,00;98,11
3678,00;98,11
3677,00;98,11
3676,00;98,10
3675,00;98,08
3674,00;98,02
3673,00;97,97
3672,00;97,94
3671,00;97,94
3670,00;97,99
3669,00;98,04
3668,00;98,05
3667,00;98,04
3666,00;98,02
3665,00;98,00
3664,00;97,99
3663,00;97,99
3662,00;98,00
3661,00;98,00
3660,00;98,00
3659,00;97,98
3658,00;97,96
3657,00;97,93
3656,00;97,90
3655,00;97,88
3654,00;97,89
3653,00;97,92
3652,00;97,93
3651,00;97,91
3650,00;97,85
3649,00;97,83
3648,00;97,88
3647,00;97,92
3646,00;97,91
3645,00;97,89
3644,00;97,87
3643,00;97,87
3642,00;97,87
3641,00;97,87
3640,00;97,85
3639,00;97,81
3638,00;97,78
3637,00;97,75
3636,00;97,74
3635,00;97,73
3634,00;97,70
3633,00;97,66
3632,00;97,60
3631,00;97,52
3630,00;97,43
3629,00;97,36
3628,00;97,32
3627,00;97,31
3626,00;97,32
3625,00;97,33
3624,00;97,34
3623,00;97,34
3622,00;97,33
3621,00;97,31
3620,00;97,28
3619,00;97,25
3618,00;97,21
3617,00;97,16
3616,00;97,10
3615,00;97,04
3614,00;96,97
3613,00;96,90
3612,00;96,82
3611,00;96,75
3610,00;96,68
3609,00;96,64
3608,00;96,64
3607,00;96,66
3606,00;96,66
3605,00;96,63
3604,00;96,58
3603,00;96,51
3602,00;96,44
3601,00;96,37
3600,00;96,30
3599,00;96,23
3598,00;96,18
3597,00;96,12
3596,00;96,07
3595,00;95,98
3594,00;95,87
3593,00;95,74
3592,00;95,61
3591,00;95,50
3590,00;95,39
3589,00;95,27
3588,00;95,15
3587,00;95,03
3586,00;94,92
3585,00;94,82
3584,00;94,70
3583,00;94,59
3582,00;94,47
3581,00;94,34
3580,00;94,20
3579,00;94,06
3578,00;93,91
3577,00;93,75
3576,00;93,58
3575,00;93,40
3574,00;93,22
3573,00;93,04
3572,00;92,87
3571,00;92,71
3570,00;92,57
3569,00;92,40
3568,00;92,17
3567,00;91,89
3566,00;91,59
3565,00;91,31
3564,00;91,06
3563,00;90,82
3562,00;90,59
3561,00;90,37
3560,00;90,14
3559,00;89,91
3558,00;89,68
3557,00;89,44
3556,00;89,19
3555,00;88,94
3554,00;88,67
3553,00;88,39
3552,00;88,13
3551,00;87,92
3550,00;87,77
3549,00;87,65
3548,00;87,55
3547,00;87,45
3546,00;87,36
3545,00;87,32
3544,00;87,35
3543,00;87,45
3542,00;87,60
3541,00;87,78
3540,00;87,97
3539,00;88,18
3538,00;88,41
3537,00;88,63
3536,00;88,85
3535,00;89,06
3534,00;89,25
3533,00;89,43
3532,00;89,61
3531,00;89,79
3530,00;89,95
3529,00;90,09
3528,00;90,20
3527,00;90,27
3526,00;90,33
3525,00;90,38
3524,00;90,44
3523,00;90,51
3522,00;90,58
3521,00;90,63
3520,00;90,65
3519,00;90,65
3518,00;90,65
3517,00;90,65
3516,00;90,63
3515,00;90,60
3514,00;90,56
3513,00;90,50
3512,00;90,41
3511,00;90,30
3510,00;90,17
3509,00;90,05
3508,00;89,95
3507,00;89,86
3506,00;89,77
3505,00;89,65
3504,00;89,50
3503,00;89,31
3502,00;89,11
3501,00;88,93
3500,00;88,77
3499,00;88,63
3498,00;88,49
3497,00;88,32
3496,00;88,13
3495,00;87,93
3494,00;87,72
3493,00;87,52
3492,00;87,32
3491,00;87,13
3490,00;86,93
3489,00;86,73
3488,00;86,52
3487,00;86,31
3486,00;86,10
3485,00;85,92
3484,00;85,75
3483,00;85,59
3482,00;85,42
3481,00;85,25
3480,00;85,08
3479,00;84,94
3478,00;84,84
3477,00;84,76
3476,00;84,69
3475,00;84,62
3474,00;84,54
3473,00;84,45
3472,00;84,37
3471,00;84,30
3470,00;84,25
3469,00;84,22
3468,00;84,19
3467,00;84,17
3466,00;84,16
3465,00;84,14
3464,00;84,14
3463,00;84,14
3462,00;84,13
3461,00;84,12
3460,00;84,10
3459,00;84,08
3458,00;84,08
3457,00;84,10
3456,00;84,14
3455,00;84,18
3454,00;84,23
3453,00;84,29
3452,00;84,36
3451,00;84,43
3450,00;84,50
3449,00;84,54
3448,00;84,57
3447,00;84,58
3446,00;84,61
3445,00;84,65
3444,00;84,70
3443,00;84,75
3442,00;84,79
3441,00;84,81
3440,00;84,81
3439,00;84,78
3438,00;84,73
3437,00;84,67
3436,00;84,59
3435,00;84,49
3434,00;84,37
3433,00;84,22
3432,00;84,03
3431,00;83,82
3430,00;83,58
3429,00;83,33
3428,00;83,05
3427,00;82,76
3426,00;82,46
3425,00;82,14
3424,00;81,80
3423,00;81,46
3422,00;81,10
3421,00;80,74
3420,00;80,38
3419,00;80,05
3418,00;79,73
3417,00;79,43
3416,00;79,13
3415,00;78,84
3414,00;78,56
3413,00;78,31
3412,00;78,10
3411,00;77,92
3410,00;77,77
3409,00;77,64
3408,00;77,54
3407,00;77,48
3406,00;77,44
3405,00;77,44
3404,00;77,48
3403,00;77,54
3402,00;77,63
3401,00;77,74
3400,00;77,86
3399,00;77,98
3398,00;78,12
3397,00;78,26
3396,00;78,40
3395,00;78,55
3394,00;78,71
3393,00;78,88
3392,00;79,07
3391,00;79,25
3390,00;79,43
3389,00;79,62
3388,00;79,80
3387,00;79,97
3386,00;80,12
3385,00;80,26
3384,00;80,41
3383,00;80,58
3382,00;80,77
3381,00;80,96
3380,00;81,14
3379,00;81,29
3378,00;81,44
3377,00;81,57
3376,00;81,71
3375,00;81,87
3374,00;82,03
3373,00;82,21
3372,00;82,39
3371,00;82,56
3370,00;82,72
3369,00;82,88
3368,00;83,05
3367,00;83,23
3366,00;83,41
3365,00;83,60
3364,00;83,80
3363,00;83,99
3362,00;84,19
3361,00;84,39
3360,00;84,59
3359,00;84,80
3358,00;85,01
3357,00;85,23
3356,00;85,44
3355,00;85,66
3354,00;85,86
3353,00;86,06
3352,00;86,24
3351,00;86,42
3350,00;86,61
3349,00;86,80
3348,00;86,99
3347,00;87,18
3346,00;87,35
3345,00;87,53
3344,00;87,71
3343,00;87,88
3342,00;88,05
3341,00;88,22
3340,00;88,38
3339,00;88,55
3338,00;88,72
3337,00;88,88
3336,00;89,05
3335,00;89,20
3334,00;89,35
3333,00;89,49
3332,00;89,62
3331,00;89,76
3330,00;89,90
3329,00;90,04
3328,00;90,17
3327,00;90,31
3326,00;90,44
3325,00;90,57
3324,00;90,69
3323,00;90,81
3322,00;90,93
3321,00;91,04
3320,00;91,15
3319,00;91,25
3318,00;91,36
3317,00;91,47
3316,00;91,59
3315,00;91,71
3314,00;91,81
3313,00;91,89
3312,00;91,96
3311,00;92,03
3310,00;92,10
3309,00;92,18
3308,00;92,25
3307,00;92,33
3306,00;92,39
3305,00;92,45
3304,00;92,51
3303,00;92,58
3302,00;92,65
3301,00;92,71
3300,00;92,77
3299,00;92,82
3298,00;92,87
3297,00;92,92
3296,00;92,97
3295,00;93,02
3294,00;93,06
3293,00;93,09
3292,00;93,12
3291,00;93,14
3290,00;93,17
3289,00;93,19
3288,00;93,20
3287,00;93,22
3286,00;93,25
3285,00;93,27
3284,00;93,30
3283,00;93,33
3282,00;93,35
3281,00;93,38
3280,00;93,41
3279,00;93,43
3278,00;93,46
3277,00;93,48
3276,00;93,51
3275,00;93,55
3274,00;93,59
3273,00;93,63
3272,00;93,65
3271,00;93,67
3270,00;93,68
3269,00;93,68
3268,00;93,69
3267,00;93,69
3266,00;93,68
3265,00;93,66
3264,00;93,63
3263,00;93,59
3262,00;93,55
3261,00;93,51
3260,00;93,48
3259,00;93,44
3258,00;93,40
3257,00;93,37
3256,00;93,33
3255,00;93,30
3254,00;93,28
3253,00;93,26
3252,00;93,23
3251,00;93,20
3250,00;93,16
3249,00;93,11
3248,00;93,04
3247,00;92,96
3246,00;92,86
3245,00;92,74
3244,00;92,61
3243,00;92,47
3242,00;92,33
3241,00;92,20
3240,00;92,08
3239,00;91,98
3238,00;91,89
3237,00;91,82
3236,00;91,77
3235,00;91,75
3234,00;91,75
3233,00;91,78
3232,00;91,82
3231,00;91,88
3230,00;91,97
3229,00;92,09
3228,00;92,24
3227,00;92,41
3226,00;92,61
3225,00;92,81
3224,00;93,02
3223,00;93,22
3222,00;93,42
3221,00;93,60
3220,00;93,78
3219,00;93,95
3218,00;94,10
3217,00;94,23
3216,00;94,35
3215,00;94,48
3214,00;94,60
3213,00;94,72
3212,00;94,83
3211,00;94,94
3210,00;95,05
3209,00;95,17
3208,00;95,27
3207,00;95,35
3206,00;95,41
3205,00;95,47
3204,00;95,53
3203,00;95,59
3202,00;95,65
3201,00;95,70
3200,00;95,76
3199,00;95,82
3198,00;95,88
3197,00;95,94
3196,00;95,99
3195,00;96,03
3194,00;96,06
3193,00;96,09
3192,00;96,12
3191,00;96,16
3190,00;96,19
3189,00;96,23
3188,00;96,26
3187,00;96,30
3186,00;96,32
3185,00;96,35
3184,00;96,38
3183,00;96,43
3182,00;96,48
3181,00;96,53
3180,00;96,57
3179,00;96,59
3178,00;96,62
3177,00;96,64
3176,00;96,67
3175,00;96,70
3174,00;96,73
3173,00;96,76
3172,00;96,78
3171,00;96,80
3170,00;96,81
3169,00;96,83
3168,00;96,86
3167,00;96,88
3166,00;96,90
3165,00;96,91
3164,00;96,92
3163,00;96,92
3162,00;96,94
3161,00;96,96
3160,00;96,98
3159,00;97,00
3158,00;97,02
3157,00;97,04
3156,00;97,06
3155,00;97,08
3154,00;97,10
3153,00;97,12
3152,00;97,14
3151,00;97,16
3150,00;97,18
3149,00;97,20
3148,00;97,21
3147,00;97,22
3146,00;97,23
3145,00;97,24
3144,00;97,27
3143,00;97,30
3142,00;97,33
3141,00;97,34
3140,00;97,35
3139,00;97,36
3138,00;97,37
3137,00;97,37
3136,00;97,38
3135,00;97,39
3134,00;97,41
3133,00;97,42
3132,00;97,45
3131,00;97,48
3130,00;97,49
3129,00;97,49
3128,00;97,49
3127,00;97,49
3126,00;97,49
3125,00;97,51
3124,00;97,52
3123,00;97,53
3122,00;97,53
3121,00;97,53
3120,00;97,54
3119,00;97,55
3118,00;97,56
3117,00;97,56
3116,00;97,56
3115,00;97,57
3114,00;97,59
3113,00;97,59
3112,00;97,60
3111,00;97,60
3110,00;97,61
3109,00;97,61
3108,00;97,62
3107,00;97,63
3106,00;97,64
3105,00;97,64
3104,00;97,65
3103,00;97,67
3102,00;97,69
3101,00;97,71
3100,00;97,72
3099,00;97,72
3098,00;97,71
3097,00;97,71
3096,00;97,73
3095,00;97,75
3094,00;97,77
3093,00;97,79
3092,00;97,79
3091,00;97,79
3090,00;97,78
3089,00;97,77
3088,00;97,76
3087,00;97,77
3086,00;97,78
3085,00;97,79
3084,00;97,79
3083,00;97,79
3082,00;97,80
3081,00;97,82
3080,00;97,83
3079,00;97,84
3078,00;97,84
3077,00;97,85
3076,00;97,85
3075,00;97,84
3074,00;97,85
3073,00;97,85
3072,00;97,86
3071,00;97,87
3070,00;97,88
3069,00;97,90
3068,00;97,91
3067,00;97,92
3066,00;97,92
3065,00;97,91
3064,00;97,91
3063,00;97,91
3062,00;97,92
3061,00;97,93
3060,00;97,93
3059,00;97,93
3058,00;97,93
3057,00;97,93
3056,00;97,92
3055,00;97,92
3054,00;97,93
3053,00;97,94
3052,00;97,95
3051,00;97,95
3050,00;97,94
3049,00;97,94
3048,00;97,95
3047,00;97,96
3046,00;97,98
3045,00;97,98
3044,00;97,99
3043,00;98,00
3042,00;98,01
3041,00;98,01
3040,00;98,02
3039,00;98,02
3038,00;98,03
3037,00;98,04
3036,00;98,06
3035,00;98,08
3034,00;98,10
3033,00;98,11
3032,00;98,11
3031,00;98,11
3030,00;98,11
3029,00;98,11
3028,00;98,11
3027,00;98,13
3026,00;98,14
3025,00;98,15
3024,00;98,16
3023,00;98,17
3022,00;98,17
3021,00;98,18
3020,00;98,18
3019,00;98,18
3018,00;98,20
3017,00;98,21
3016,00;98,21
3015,00;98,19
3014,00;98,18
3013,00;98,16
3012,00;98,16
3011,00;98,17
3010,00;98,18
3009,00;98,18
3008,00;98,19
3007,00;98,20
3006,00;98,21
3005,00;98,21
3004,00;98,22
3003,00;98,22
3002,00;98,22
3001,00;98,21
3000,00;98,21
2999,00;98,20
2998,00;98,21
2997,00;98,21
2996,00;98,22
2995,00;98,22
2994,00;98,22
2993,00;98,21
2992,00;98,20
2991,00;98,20
2990,00;98,20
2989,00;98,20
2988,00;98,19
2987,00;98,19
2986,00;98,19
2985,00;98,19
2984,00;98,18
2983,00;98,18
2982,00;98,18
2981,00;98,19
2980,00;98,20
2979,00;98,21
2978,00;98,23
2977,00;98,24
2976,00;98,26
2975,00;98,28
2974,00;98,31
2973,00;98,34
2972,00;98,38
2971,00;98,41
2970,00;98,42
2969,00;98,40
2968,00;98,38
2967,00;98,37
2966,00;98,36
2965,00;98,35
2964,00;98,34
2963,00;98,32
2962,00;98,32
2961,00;98,32
2960,00;98,33
2959,00;98,34
2958,00;98,36
2957,00;98,37
2956,00;98,38
2955,00;98,37
2954,00;98,37
2953,00;98,37
2952,00;98,36
2951,00;98,36
2950,00;98,35
2949,00;98,35
2948,00;98,34
2947,00;98,35
2946,00;98,37
2945,00;98,39
2944,00;98,39
2943,00;98,39
2942,00;98,39
2941,00;98,40
2940,00;98,42
2939,00;98,43
2938,00;98,45
2937,00;98,45
2936,00;98,46
2935,00;98,46
2934,00;98,46
2933,00;98,46
2932,00;98,47
2931,00;98,48
2930,00;98,49
2929,00;98,50
2928,00;98,51
2927,00;98,52
2926,00;98,53
2925,00;98,53
2924,00;98,53
2923,00;98,52
2922,00;98,52
2921,00;98,52
2920,00;98,51
2919,00;98,51
2918,00;98,49
2917,00;98,48
2916,00;98,46
2915,00;98,45
2914,00;98,45
2913,00;98,44
2912,00;98,42
2911,00;98,41
2910,00;98,41
2909,00;98,41
2908,00;98,41
2907,00;98,39
2906,00;98,38
2905,00;98,37
2904,00;98,36
2903,00;98,35
2902,00;98,35
2901,00;98,34
2900,00;98,34
2899,00;98,33
2898,00;98,33
2897,00;98,33
2896,00;98,33
2895,00;98,33
2894,00;98,33
2893,00;98,33
2892,00;98,33
2891,00;98,32
2890,00;98,31
2889,00;98,31
2888,00;98,31
2887,00;98,32
2886,00;98,32
2885,00;98,32
2884,00;98,32
2883,00;98,32
2882,00;98,32
2881,00;98,32
2880,00;98,32
2879,00;98,32
2878,00;98,32
2877,00;98,31
2876,00;98,31
2875,00;98,30
2874,00;98,30
2873,00;98,30
2872,00;98,30
2871,00;98,31
2870,00;98,33
2869,00;98,35
2868,00;98,36
2867,00;98,37
2866,00;98,36
2865,00;98,35
2864,00;98,35
2863,00;98,36
2862,00;98,36
2861,00;98,36
2860,00;98,36
2859,00;98,36
2858,00;98,37
2857,00;98,38
2856,00;98,38
2855,00;98,39
2854,00;98,40
2853,00;98,40
2852,00;98,39
2851,00;98,39
2850,00;98,39
2849,00;98,40
2848,00;98,41
2847,00;98,40
2846,00;98,39
2845,00;98,37
2844,00;98,36
2843,00;98,35
2842,00;98,33
2841,00;98,32
2840,00;98,32
2839,00;98,32
2838,00;98,32
2837,00;98,32
2836,00;98,31
2835,00;98,30
2834,00;98,30
2833,00;98,30
2832,00;98,31
2831,00;98,32
2830,00;98,32
2829,00;98,32
2828,00;98,33
2827,00;98,32
2826,00;98,31
2825,00;98,30
2824,00;98,29
2823,00;98,29
2822,00;98,29
2821,00;98,30
2820,00;98,30
2819,00;98,30
2818,00;98,30
2817,00;98,30
2816,00;98,30
2815,00;98,31
2814,00;98,33
2813,00;98,33
2812,00;98,33
2811,00;98,32
2810,00;98,32
2809,00;98,31
2808,00;98,31
2807,00;98,31
2806,00;98,31
2805,00;98,32
2804,00;98,32
2803,00;98,33
2802,00;98,32
2801,00;98,32
2800,00;98,31
2799,00;98,31
2798,00;98,31
2797,00;98,32
2796,00;98,31
2795,00;98,30
2794,00;98,30
2793,00;98,30
2792,00;98,31
2791,00;98,32
2790,00;98,33
2789,00;98,34
2788,00;98,35
2787,00;98,35
2786,00;98,35
2785,00;98,35
2784,00;98,34
2783,00;98,33
2782,00;98,32
2781,00;98,31
2780,00;98,31
2779,00;98,31
2778,00;98,32
2777,00;98,32
2776,00;98,32
2775,00;98,32
2774,00;98,31
2773,00;98,32
2772,00;98,32
2771,00;98,33
2770,00;98,33
2769,00;98,32
2768,00;98,32
2767,00;98,32
2766,00;98,33
2765,00;98,33
2764,00;98,32
2763,00;98,32
2762,00;98,31
2761,00;98,30
2760,00;98,30
2759,00;98,30
2758,00;98,31
2757,00;98,31
2756,00;98,31
2755,00;98,32
2754,00;98,32
2753,00;98,33
2752,00;98,33
2751,00;98,34
2750,00;98,34
2749,00;98,34
2748,00;98,34
2747,00;98,35
2746,00;98,35
2745,00;98,35
2744,00;98,34
2743,00;98,33
2742,00;98,32
2741,00;98,31
2740,00;98,30
2739,00;98,30
2738,00;98,30
2737,00;98,29
2736,00;98,30
2735,00;98,31
2734,00;98,32
2733,00;98,34
2732,00;98,35
2731,00;98,35
2730,00;98,35
2729,00;98,35
2728,00;98,35
2727,00;98,34
2726,00;98,34
2725,00;98,33
2724,00;98,32
2723,00;98,30
2722,00;98,30
2721,00;98,29
2720,00;98,29
2719,00;98,29
2718,00;98,30
2717,00;98,31
2716,00;98,32
2715,00;98,33
2714,00;98,34
2713,00;98,35
2712,00;98,35
2711,00;98,34
2710,00;98,34
2709,00;98,33
2708,00;98,33
2707,00;98,33
2706,00;98,34
2705,00;98,34
2704,00;98,34
2703,00;98,34
2702,00;98,34
2701,00;98,34
2700,00;98,34
2699,00;98,34
2698,00;98,34
2697,00;98,34
2696,00;98,33
2695,00;98,32
2694,00;98,31
2693,00;98,31
2692,00;98,31
2691,00;98,31
2690,00;98,32
2689,00;98,33
2688,00;98,34
2687,00;98,35
2686,00;98,34
2685,00;98,34
2684,00;98,33
2683,00;98,32
2682,00;98,32
2681,00;98,32
2680,00;98,33
2679,00;98,34
2678,00;98,35
2677,00;98,36
2676,00;98,35
2675,00;98,34
2674,00;98,33
2673,00;98,32
2672,00;98,33
2671,00;98,34
2670,00;98,35
2669,00;98,35
2668,00;98,34
2667,00;98,33
2666,00;98,34
2665,00;98,35
2664,00;98,34
2663,00;98,34
2662,00;98,32
2661,00;98,31
2660,00;98,30
2659,00;98,30
2658,00;98,30
2657,00;98,31
2656,00;98,32
2655,00;98,32
2654,00;98,32
2653,00;98,31
2652,00;98,29
2651,00;98,28
2650,00;98,28
2649,00;98,29
2648,00;98,31
2647,00;98,32
2646,00;98,32
2645,00;98,32
2644,00;98,30
2643,00;98,29
2642,00;98,29
2641,00;98,28
2640,00;98,27
2639,00;98,26
2638,00;98,26
2637,00;98,26
2636,00;98,26
2635,00;98,27
2634,00;98,27
2633,00;98,27
2632,00;98,27
2631,00;98,27
2630,00;98,28
2629,00;98,28
2628,00;98,29
2627,00;98,29
2626,00;98,29
2625,00;98,29
2624,00;98,29
2623,00;98,29
2622,00;98,30
2621,00;98,30
2620,00;98,29
2619,00;98,29
2618,00;98,29
2617,00;98,29
2616,00;98,30
2615,00;98,31
2614,00;98,32
2613,00;98,32
2612,00;98,31
2611,00;98,29
2610,00;98,26
2609,00;98,25
2608,00;98,24
2607,00;98,25
2606,00;98,25
2605,00;98,26
2604,00;98,26
2603,00;98,27
2602,00;98,29
2601,00;98,31
2600,00;98,31
2599,00;98,31
2598,00;98,30
2597,00;98,29
2596,00;98,29
2595,00;98,29
2594,00;98,30
2593,00;98,33
2592,00;98,35
2591,00;98,37
2590,00;98,38
2589,00;98,37
2588,00;98,36
2587,00;98,35
2586,00;98,35
2585,00;98,36
2584,00;98,35
2583,00;98,34
2582,00;98,32
2581,00;98,30
2580,00;98,29
2579,00;98,29
2578,00;98,31
2577,00;98,34
2576,00;98,35
2575,00;98,36
2574,00;98,36
2573,00;98,35
2572,00;98,36
2571,00;98,36
2570,00;98,37
2569,00;98,37
2568,00;98,37
2567,00;98,38
2566,00;98,39
2565,00;98,39
2564,00;98,39
2563,00;98,38
2562,00;98,38
2561,00;98,38
2560,00;98,38
2559,00;98,38
2558,00;98,38
2557,00;98,38
2556,00;98,38
2555,00;98,38
2554,00;98,38
2553,00;98,38
2552,00;98,38
2551,00;98,38
2550,00;98,39
2549,00;98,38
2548,00;98,36
2547,00;98,34
2546,00;98,33
2545,00;98,33
2544,00;98,35
2543,00;98,36
2542,00;98,37
2541,00;98,37
2540,00;98,37
2539,00;98,38
2538,00;98,39
2537,00;98,40
2536,00;98,40
2535,00;98,40
2534,00;98,40
2533,00;98,40
2532,00;98,41
2531,00;98,42
2530,00;98,43
2529,00;98,43
2528,00;98,42
2527,00;98,41
2526,00;98,40
2525,00;98,40
2524,00;98,42
2523,00;98,44
2522,00;98,45
2521,00;98,44
2520,00;98,43
2519,00;98,40
2518,00;98,39
2517,00;98,39
2516,00;98,42
2515,00;98,45
2514,00;98,47
2513,00;98,46
2512,00;98,43
2511,00;98,39
2510,00;98,36
2509,00;98,36
2508,00;98,38
2507,00;98,41
2506,00;98,45
2505,00;98,48
2504,00;98,49
2503,00;98,49
2502,00;98,49
2501,00;98,47
2500,00;98,44
2499,00;98,42
2498,00;98,42
2497,00;98,42
2496,00;98,42
2495,00;98,42
2494,00;98,42
2493,00;98,43
2492,00;98,44
2491,00;98,44
2490,00;98,45
2489,00;98,46
2488,00;98,47
2487,00;98,48
2486,00;98,49
2485,00;98,48
2484,00;98,47
2483,00;98,46
2482,00;98,44
2481,00;98,44
2480,00;98,46
2479,00;98,48
2478,00;98,49
2477,00;98,49
2476,00;98,49
2475,00;98,48
2474,00;98,48
2473,00;98,47
2472,00;98,47
2471,00;98,49
2470,00;98,50
2469,00;98,50
2468,00;98,49
2467,00;98,49
2466,00;98,48
2465,00;98,48
2464,00;98,47
2463,00;98,46
2462,00;98,45
2461,00;98,45
2460,00;98,46
2459,00;98,47
2458,00;98,48
2457,00;98,48
2456,00;98,49
2455,00;98,49
2454,00;98,51
2453,00;98,52
2452,00;98,52
2451,00;98,53
2450,00;98,53
2449,00;98,53
2448,00;98,53
2447,00;98,53
2446,00;98,53
2445,00;98,52
2444,00;98,51
2443,00;98,50
2442,00;98,50
2441,00;98,50
2440,00;98,50
2439,00;98,50
2438,00;98,50
2437,00;98,49
2436,00;98,49
2435,00;98,50
2434,00;98,50
2433,00;98,49
2432,00;98,48
2431,00;98,49
2430,00;98,52
2429,00;98,55
2428,00;98,57
2427,00;98,56
2426,00;98,56
2425,00;98,55
2424,00;98,54
2423,00;98,53
2422,00;98,53
2421,00;98,53
2420,00;98,53
2419,00;98,52
2418,00;98,52
2417,00;98,51
2416,00;98,51
2415,00;98,51
2414,00;98,52
2413,00;98,52
2412,00;98,52
2411,00;98,53
2410,00;98,53
2409,00;98,53
2408,00;98,53
2407,00;98,53
2406,00;98,53
2405,00;98,54
2404,00;98,54
2403,00;98,54
2402,00;98,54
2401,00;98,54
2400,00;98,54
2399,00;98,55
2398,00;98,57
2397,00;98,58
2396,00;98,58
2395,00;98,58
2394,00;98,57
2393,00;98,56
2392,00;98,55
2391,00;98,55
2390,00;98,55
2389,00;98,55
2388,00;98,54
2387,00;98,55
2386,00;98,56
2385,00;98,59
2384,00;98,61
2383,00;98,61
2382,00;98,59
2381,00;98,57
2380,00;98,56
2379,00;98,56
2378,00;98,57
2377,00;98,56
2376,00;98,56
2375,00;98,56
2374,00;98,56
2373,00;98,56
2372,00;98,55
2371,00;98,54
2370,00;98,55
2369,00;98,57
2368,00;98,58
2367,00;98,57
2366,00;98,55
2365,00;98,52
2364,00;98,49
2363,00;98,47
2362,00;98,48
2361,00;98,52
2360,00;98,56
2359,00;98,59
2358,00;98,59
2357,00;98,58
2356,00;98,55
2355,00;98,53
2354,00;98,51
2353,00;98,48
2352,00;98,47
2351,00;98,48
2350,00;98,50
2349,00;98,51
2348,00;98,49
2347,00;98,46
2346,00;98,45
2345,00;98,47
2344,00;98,53
2343,00;98,57
2342,00;98,57
2341,00;98,51
2340,00;98,43
2339,00;98,37
2338,00;98,35
2337,00;98,37
2336,00;98,40
2335,00;98,44
2334,00;98,46
2333,00;98,44
2332,00;98,42
2331,00;98,40
2330,00;98,40
2329,00;98,41
2328,00;98,41
2327,00;98,41
2326,00;98,40
2325,00;98,37
2324,00;98,32
2323,00;98,28
2322,00;98,27
2321,00;98,27
2320,00;98,31
2319,00;98,35
2318,00;98,39
2317,00;98,41
2316,00;98,40
2315,00;98,39
2314,00;98,37
2313,00;98,36
2312,00;98,34
2311,00;98,32
2310,00;98,32
2309,00;98,33
2308,00;98,35
2307,00;98,36
2306,00;98,36
2305,00;98,35
2304,00;98,36
2303,00;98,37
2302,00;98,37
2301,00;98,36
2300,00;98,34
2299,00;98,33
2298,00;98,33
2297,00;98,33
2296,00;98,33
2295,00;98,33
2294,00;98,32
2293,00;98,31
2292,00;98,29
2291,00;98,27
2290,00;98,26
2289,00;98,26
2288,00;98,26
2287,00;98,25
2286,00;98,24
2285,00;98,23
2284,00;98,22
2283,00;98,21
2282,00;98,21
2281,00;98,22
2280,00;98,23
2279,00;98,24
2278,00;98,25
2277,00;98,27
2276,00;98,30
2275,00;98,33
2274,00;98,34
2273,00;98,33
2272,00;98,32
2271,00;98,30
2270,00;98,27
2269,00;98,25
2268,00;98,23
2267,00;98,22
2266,00;98,22
2265,00;98,23
2264,00;98,22
2263,00;98,20
2262,00;98,18
2261,00;98,16
2260,00;98,15
2259,00;98,14
2258,00;98,14
2257,00;98,15
2256,00;98,18
2255,00;98,22
2254,00;98,26
2253,00;98,28
2252,00;98,29
2251,00;98,28
2250,00;98,28
2249,00;98,27
2248,00;98,27
2247,00;98,25
2246,00;98,23
2245,00;98,22
2244,00;98,21
2243,00;98,22
2242,00;98,22
2241,00;98,21
2240,00;98,18
2239,00;98,17
2238,00;98,18
2237,00;98,21
2236,00;98,23
2235,00;98,24
2234,00;98,24
2233,00;98,23
2232,00;98,21
2231,00;98,20
2230,00;98,21
2229,00;98,24
2228,00;98,26
2227,00;98,27
2226,00;98,25
2225,00;98,24
2224,00;98,24
2223,00;98,25
2222,00;98,25
2221,00;98,23
2220,00;98,21
2219,00;98,18
2218,00;98,17
2217,00;98,16
2216,00;98,18
2215,00;98,21
2214,00;98,23
2213,00;98,22
2212,00;98,20
2211,00;98,19
2210,00;98,19
2209,00;98,19
2208,00;98,17
2207,00;98,13
2206,00;98,10
2205,00;98,09
2204,00;98,11
2203,00;98,15
2202,00;98,17
2201,00;98,17
2200,00;98,16
2199,00;98,16
2198,00;98,18
2197,00;98,20
2196,00;98,20
2195,00;98,17
2194,00;98,12
2193,00;98,06
2192,00;98,02
2191,00;98,01
2190,00;98,02
2189,00;98,02
2188,00;98,01
2187,00;98,00
2186,00;98,00
2185,00;98,00
2184,00;98,02
2183,00;98,06
2182,00;98,10
2181,00;98,12
2180,00;98,10
2179,00;98,06
2178,00;98,03
2177,00;98,02
2176,00;98,02
2175,00;98,01
2174,00;97,99
2173,00;97,95
2172,00;97,93
2171,00;97,94
2170,00;97,96
2169,00;97,95
2168,00;97,93
2167,00;97,91
2166,00;97,91
2165,00;97,92
2164,00;97,90
2163,00;97,86
2162,00;97,80
2161,00;97,74
2160,00;97,72
2159,00;97,78
2158,00;97,89
2157,00;97,98
2156,00;98,01
2155,00;98,00
2154,00;97,99
2153,00;97,97
2152,00;97,97
2151,00;97,97
2150,00;97,98
2149,00;97,99
2148,00;97,99
2147,00;97,99
2146,00;97,97
2145,00;97,94
2144,00;97,90
2143,00;97,88
2142,00;97,85
2141,00;97,82
2140,00;97,78
2139,00;97,75
2138,00;97,74
2137,00;97,74
2136,00;97,74
2135,00;97,75
2134,00;97,77
2133,00;97,79
2132,00;97,80
2131,00;97,81
2130,00;97,80
2129,00;97,79
2128,00;97,76
2127,00;97,73
2126,00;97,70
2125,00;97,67
2124,00;97,65
2123,00;97,63
2122,00;97,62
2121,00;97,60
2120,00;97,58
2119,00;97,56
2118,00;97,54
2117,00;97,52
2116,00;97,49
2115,00;97,47
2114,00;97,47
2113,00;97,48
2112,00;97,49
2111,00;97,49
2110,00;97,48
2109,00;97,46
2108,00;97,45
2107,00;97,44
2106,00;97,44
2105,00;97,44
2104,00;97,43
2103,00;97,41
2102,00;97,39
2101,00;97,38
2100,00;97,36
2099,00;97,34
2098,00;97,34
2097,00;97,37
2096,00;97,40
2095,00;97,43
2094,00;97,43
2093,00;97,40
2092,00;97,37
2091,00;97,34
2090,00;97,31
2089,00;97,29
2088,00;97,28
2087,00;97,30
2086,00;97,31
2085,00;97,31
2084,00;97,30
2083,00;97,28
2082,00;97,28
2081,00;97,28
2080,00;97,28
2079,00;97,26
2078,00;97,24
2077,00;97,23
2076,00;97,22
2075,00;97,22
2074,00;97,24
2073,00;97,25
2072,00;97,25
2071,00;97,25
2070,00;97,24
2069,00;97,22
2068,00;97,21
2067,00;97,21
2066,00;97,23
2065,00;97,27
2064,00;97,31
2063,00;97,32
2062,00;97,28
2061,00;97,24
2060,00;97,22
2059,00;97,24
2058,00;97,28
2057,00;97,30
2056,00;97,30
2055,00;97,28
2054,00;97,25
2053,00;97,22
2052,00;97,19
2051,00;97,17
2050,00;97,16
2049,00;97,15
2048,00;97,15
2047,00;97,16
2046,00;97,15
2045,00;97,13
2044,00;97,10
2043,00;97,10
2042,00;97,12
2041,00;97,15
2040,00;97,14
2039,00;97,12
2038,00;97,10
2037,00;97,06
2036,00;97,03
2035,00;97,02
2034,00;97,04
2033,00;97,08
2032,00;97,11
2031,00;97,12
2030,00;97,14
2029,00;97,16
2028,00;97,18
2027,00;97,19
2026,00;97,21
2025,00;97,21
2024,00;97,21
2023,00;97,18
2022,00;97,14
2021,00;97,10
2020,00;97,08
2019,00;97,11
2018,00;97,16
2017,00;97,19
2016,00;97,20
2015,00;97,22
2014,00;97,26
2013,00;97,31
2012,00;97,33
2011,00;97,32
2010,00;97,29
2009,00;97,29
2008,00;97,35
2007,00;97,45
2006,00;97,54
2005,00;97,60
2004,00;97,62
2003,00;97,63
2002,00;97,64
2001,00;97,66
2000,00;97,68
1999,00;97,69
1998,00;97,69
1997,00;97,66
1996,00;97,63
1995,00;97,61
1994,00;97,62
1993,00;97,64
1992,00;97,69
1991,00;97,74
1990,00;97,79
1989,00;97,82
1988,00;97,84
1987,00;97,87
1986,00;97,91
1985,00;97,94
1984,00;97,94
1983,00;97,94
1982,00;97,96
1981,00;98,01
1980,00;98,08
1979,00;98,15
1978,00;98,21
1977,00;98,24
1976,00;98,25
1975,00;98,22
1974,00;98,17
1973,00;98,12
1972,00;98,10
1971,00;98,13
1970,00;98,18
1969,00;98,24
1968,00;98,27
1967,00;98,27
1966,00;98,26
1965,00;98,28
1964,00;98,32
1963,00;98,38
1962,00;98,42
1961,00;98,43
1960,00;98,40
1959,00;98,36
1958,00;98,33
1957,00;98,31
1956,00;98,29
1955,00;98,28
1954,00;98,30
1953,00;98,34
1952,00;98,37
1951,00;98,41
1950,00;98,43
1949,00;98,45
1948,00;98,45
1947,00;98,44
1946,00;98,42
1945,00;98,37
1944,00;98,32
1943,00;98,30
1942,00;98,31
1941,00;98,33
1940,00;98,32
1939,00;98,31
1938,00;98,30
1937,00;98,31
1936,00;98,31
1935,00;98,31
1934,00;98,33
1933,00;98,34
1932,00;98,35
1931,00;98,35
1930,00;98,35
1929,00;98,36
1928,00;98,39
1927,00;98,42
1926,00;98,45
1925,00;98,46
1924,00;98,46
1923,00;98,46
1922,00;98,43
1921,00;98,38
1920,00;98,31
1919,00;98,27
1918,00;98,27
1917,00;98,32
1916,00;98,37
1915,00;98,39
1914,00;98,40
1913,00;98,40
1912,00;98,40
1911,00;98,39
1910,00;98,38
1909,00;98,39
1908,00;98,40
1907,00;98,40
1906,00;98,39
1905,00;98,36
1904,00;98,33
1903,00;98,32
1902,00;98,34
1901,00;98,36
1900,00;98,39
1899,00;98,41
1898,00;98,41
1897,00;98,40
1896,00;98,39
1895,00;98,39
1894,00;98,38
1893,00;98,38
1892,00;98,38
1891,00;98,37
1890,00;98,37
1889,00;98,37
1888,00;98,37
1887,00;98,36
1886,00;98,34
1885,00;98,32
1884,00;98,31
1883,00;98,31
1882,00;98,32
1881,00;98,32
1880,00;98,31
1879,00;98,30
1878,00;98,29
1877,00;98,28
1876,00;98,28
1875,00;98,28
1874,00;98,29
1873,00;98,31
1872,00;98,32
1871,00;98,34
1870,00;98,34
1869,00;98,33
1868,00;98,31
1867,00;98,31
1866,00;98,29
1865,00;98,28
1864,00;98,28
1863,00;98,30
1862,00;98,33
1861,00;98,34
1860,00;98,33
1859,00;98,31
1858,00;98,30
1857,00;98,29
1856,00;98,30
1855,00;98,30
1854,00;98,31
1853,00;98,31
1852,00;98,30
1851,00;98,30
1850,00;98,30
1849,00;98,31
1848,00;98,31
1847,00;98,29
1846,00;98,25
1845,00;98,19
1844,00;98,17
1843,00;98,19
1842,00;98,24
1841,00;98,28
1840,00;98,29
1839,00;98,29
1838,00;98,28
1837,00;98,26
1836,00;98,25
1835,00;98,24
1834,00;98,25
1833,00;98,26
1832,00;98,28
1831,00;98,28
1830,00;98,29
1829,00;98,30
1828,00;98,30
1827,00;98,30
1826,00;98,28
1825,00;98,26
1824,00;98,24
1823,00;98,22
1822,00;98,22
1821,00;98,22
1820,00;98,24
1819,00;98,25
1818,00;98,25
1817,00;98,24
1816,00;98,23
1815,00;98,22
1814,00;98,22
1813,00;98,22
1812,00;98,22
1811,00;98,22
1810,00;98,21
1809,00;98,19
1808,00;98,19
1807,00;98,20
1806,00;98,20
1805,00;98,21
1804,00;98,21
1803,00;98,21
1802,00;98,19
1801,00;98,18
1800,00;98,18
1799,00;98,17
1798,00;98,13
1797,00;98,09
1796,00;98,06
1795,00;98,06
1794,00;98,06
1793,00;98,06
1792,00;98,09
1791,00;98,14
1790,00;98,18
1789,00;98,18
1788,00;98,17
1787,00;98,17
1786,00;98,17
1785,00;98,18
1784,00;98,20
1783,00;98,22
1782,00;98,23
1781,00;98,22
1780,00;98,20
1779,00;98,18
1778,00;98,18
1777,00;98,19
1776,00;98,20
1775,00;98,21
1774,00;98,22
1773,00;98,23
1772,00;98,29
1771,00;98,38
1770,00;98,44
1769,00;98,46
1768,00;98,48
1767,00;98,53
1766,00;98,60
1765,00;98,66
1764,00;98,70
1763,00;98,74
1762,00;98,79
1761,00;98,83
1760,00;98,88
1759,00;98,92
1758,00;98,96
1757,00;99,02
1756,00;99,09
1755,00;99,16
1754,00;99,22
1753,00;99,26
1752,00;99,30
1751,00;99,34
1750,00;99,37
1749,00;99,39
1748,00;99,41
1747,00;99,44
1746,00;99,48
1745,00;99,52
1744,00;99,58
1743,00;99,65
1742,00;99,70
1741,00;99,71
1740,00;99,69
1739,00;99,69
1738,00;99,70
1737,00;99,68
1736,00;99,62
1735,00;99,53
1734,00;99,44
1733,00;99,41
1732,00;99,41
1731,00;99,41
1730,00;99,42
1729,00;99,43
1728,00;99,43
1727,00;99,40
1726,00;99,38
1725,00;99,36
1724,00;99,31
1723,00;99,28
1722,00;99,27
1721,00;99,29
1720,00;99,32
1719,00;99,31
1718,00;99,17
1717,00;98,95
1716,00;98,83
1715,00;98,79
1714,00;98,78
1713,00;98,75
1712,00;98,71
1711,00;98,65
1710,00;98,62
1709,00;98,59
1708,00;98,58
1707,00;98,55
1706,00;98,49
1705,00;98,44
1704,00;98,40
1703,00;98,34
1702,00;98,27
1701,00;98,20
1700,00;98,13
1699,00;98,07
1698,00;98,05
1697,00;98,06
1696,00;98,11
1695,00;98,14
1694,00;98,12
1693,00;98,07
1692,00;98,04
1691,00;98,02
1690,00;98,02
1689,00;98,01
1688,00;98,01
1687,00;98,04
1686,00;98,11
1685,00;98,17
1684,00;98,16
1683,00;98,10
1682,00;98,01
1681,00;97,94
1680,00;97,90
1679,00;97,90
1678,00;97,90
1677,00;97,89
1676,00;97,86
1675,00;97,85
1674,00;97,85
1673,00;97,86
1672,00;97,85
1671,00;97,82
1670,00;97,80
1669,00;97,81
1668,00;97,83
1667,00;97,84
1666,00;97,83
1665,00;97,81
1664,00;97,76
1663,00;97,70
1662,00;97,66
1661,00;97,64
1660,00;97,61
1659,00;97,58
1658,00;97,56
1657,00;97,57
1656,00;97,60
1655,00;97,64
1654,00;97,63
1653,00;97,41
1652,00;97,15
1651,00;96,98
1650,00;96,86
1649,00;96,72
1648,00;96,41
1647,00;95,85
1646,00;95,23
1645,00;94,67
1644,00;94,07
1643,00;93,34
1642,00;92,45
1641,00;91,46
1640,00;90,49
1639,00;89,64
1638,00;88,95
1637,00;88,36
1636,00;87,98
1635,00;88,07
1634,00;88,52
1633,00;89,12
1632,00;89,76
1631,00;90,43
1630,00;91,07
1629,00;91,58
1628,00;91,90
1627,00;92,04
1626,00;92,02
1625,00;91,78
1624,00;91,20
1623,00;90,28
1622,00;89,25
1621,00;88,34
1620,00;87,53
1619,00;86,71
1618,00;85,68
1617,00;84,36
1616,00;83,11
1615,00;82,41
1614,00;82,26
1613,00;82,40
1612,00;82,66
1611,00;83,02
1610,00;83,53
1609,00;84,17
1608,00;84,84
1607,00;85,53
1606,00;86,24
1605,00;86,95
1604,00;87,65
1603,00;88,31
1602,00;88,97
1601,00;89,61
1600,00;90,18
1599,00;90,69
1598,00;91,16
1597,00;91,60
1596,00;92,00
1595,00;92,37
1594,00;92,72
1593,00;93,06
1592,00;93,36
1591,00;93,63
1590,00;93,88
1589,00;94,12
1588,00;94,35
1587,00;94,54
1586,00;94,73
1585,00;94,91
1584,00;95,07
1583,00;95,22
1582,00;95,35
1581,00;95,50
1580,00;95,64
1579,00;95,77
1578,00;95,86
1577,00;95,94
1576,00;96,01
1575,00;96,11
1574,00;96,20
1573,00;96,28
1572,00;96,36
1571,00;96,44
1570,00;96,50
1569,00;96,56
1568,00;96,60
1567,00;96,63
1566,00;96,65
1565,00;96,69
1564,00;96,74
1563,00;96,81
1562,00;96,91
1561,00;97,11
1560,00;97,38
1559,00;97,39
1558,00;97,27
1557,00;97,14
1556,00;97,03
1555,00;96,99
1554,00;97,01
1553,00;97,08
1552,00;97,16
1551,00;97,22
1550,00;97,25
1549,00;97,26
1548,00;97,26
1547,00;97,26
1546,00;97,25
1545,00;97,20
1544,00;97,12
1543,00;97,04
1542,00;97,00
1541,00;97,03
1540,00;97,26
1539,00;97,50
1538,00;97,52
1537,00;97,46
1536,00;97,41
1535,00;97,41
1534,00;97,45
1533,00;97,50
1532,00;97,55
1531,00;97,55
1530,00;97,54
1529,00;97,54
1528,00;97,55
1527,00;97,53
1526,00;97,48
1525,00;97,44
1524,00;97,43
1523,00;97,42
1522,00;97,41
1521,00;97,48
1520,00;97,61
1519,00;97,70
1518,00;97,71
1517,00;97,68
1516,00;97,66
1515,00;97,63
1514,00;97,59
1513,00;97,56
1512,00;97,57
1511,00;97,62
1510,00;97,68
1509,00;97,72
1508,00;97,69
1507,00;97,67
1506,00;97,76
1505,00;97,72
1504,00;97,64
1503,00;97,60
1502,00;97,58
1501,00;97,58
1500,00;97,60
1499,00;97,62
1498,00;97,61
1497,00;97,60
1496,00;97,62
1495,00;97,67
1494,00;97,70
1493,00;97,72
1492,00;97,74
1491,00;97,74
1490,00;97,71
1489,00;97,71
1488,00;97,74
1487,00;97,77
1486,00;97,77
1485,00;97,78
1484,00;97,79
1483,00;97,79
1482,00;97,80
1481,00;97,80
1480,00;97,82
1479,00;97,85
1478,00;97,89
1477,00;97,93
1476,00;97,94
1475,00;97,89
1474,00;97,78
1473,00;97,70
1472,00;97,74
1471,00;97,84
1470,00;97,88
1469,00;97,89
1468,00;97,91
1467,00;97,92
1466,00;97,93
1465,00;97,92
1464,00;97,93
1463,00;97,96
1462,00;97,98
1461,00;98,02
1460,00;98,05
1459,00;98,04
1458,00;97,91
1457,00;97,78
1456,00;97,85
1455,00;97,95
1454,00;97,99
1453,00;98,00
1452,00;98,01
1451,00;98,04
1450,00;98,08
1449,00;98,10
1448,00;98,12
1447,00;98,12
1446,00;98,11
1445,00;98,11
1444,00;98,12
1443,00;98,13
1442,00;98,13
1441,00;98,14
1440,00;98,13
1439,00;98,12
1438,00;98,10
1437,00;98,07
1436,00;98,06
1435,00;98,09
1434,00;98,11
1433,00;98,11
1432,00;98,13
1431,00;98,14
1430,00;98,15
1429,00;98,13
1428,00;98,13
1427,00;98,16
1426,00;98,19
1425,00;98,21
1424,00;98,20
1423,00;98,17
1422,00;98,15
1421,00;98,14
1420,00;98,15
1419,00;98,15
1418,00;98,16
1417,00;98,15
1416,00;98,14
1415,00;98,13
1414,00;98,12
1413,00;98,11
1412,00;98,09
1411,00;98,09
1410,00;98,10
1409,00;98,11
1408,00;98,12
1407,00;98,13
1406,00;98,14
1405,00;98,13
1404,00;98,11
1403,00;98,10
1402,00;98,10
1401,00;98,10
1400,00;98,09
1399,00;98,07
1398,00;98,07
1397,00;98,07
1396,00;98,07
1395,00;98,08
1394,00;98,11
1393,00;98,13
1392,00;98,14
1391,00;98,15
1390,00;98,17
1389,00;98,19
1388,00;98,19
1387,00;98,22
1386,00;98,28
1385,00;98,35
1384,00;98,41
1383,00;98,46
1382,00;98,51
1381,00;98,54
1380,00;98,57
1379,00;98,59
1378,00;98,62
1377,00;98,66
1376,00;98,70
1375,00;98,73
1374,00;98,74
1373,00;98,75
1372,00;98,75
1371,00;98,73
1370,00;98,73
1369,00;98,74
1368,00;98,77
1367,00;98,80
1366,00;98,83
1365,00;98,84
1364,00;98,80
1363,00;98,73
1362,00;98,66
1361,00;98,62
1360,00;98,59
1359,00;98,55
1358,00;98,53
1357,00;98,52
1356,00;98,52
1355,00;98,52
1354,00;98,53
1353,00;98,53
1352,00;98,51
1351,00;98,47
1350,00;98,42
1349,00;98,37
1348,00;98,33
1347,00;98,28
1346,00;98,22
1345,00;98,17
1344,00;98,12
1343,00;98,09
1342,00;98,06
1341,00;98,01
1340,00;97,95
1339,00;97,89
1338,00;97,87
1337,00;97,86
1336,00;97,86
1335,00;97,84
1334,00;97,81
1333,00;97,79
1332,00;97,76
1331,00;97,73
1330,00;97,71
1329,00;97,70
1328,00;97,69
1327,00;97,68
1326,00;97,67
1325,00;97,66
1324,00;97,63
1323,00;97,60
1322,00;97,56
1321,00;97,53
1320,00;97,50
1319,00;97,48
1318,00;97,46
1317,00;97,44
1316,00;97,42
1315,00;97,39
1314,00;97,37
1313,00;97,36
1312,00;97,36
1311,00;97,36
1310,00;97,35
1309,00;97,34
1308,00;97,33
1307,00;97,32
1306,00;97,31
1305,00;97,30
1304,00;97,29
1303,00;97,27
1302,00;97,25
1301,00;97,22
1300,00;97,19
1299,00;97,16
1298,00;97,13
1297,00;97,12
1296,00;97,10
1295,00;97,09
1294,00;97,07
1293,00;97,05
1292,00;97,02
1291,00;96,98
1290,00;96,95
1289,00;96,92
1288,00;96,90
1287,00;96,88
1286,00;96,86
1285,00;96,85
1284,00;96,82
1283,00;96,79
1282,00;96,76
1281,00;96,72
1280,00;96,69
1279,00;96,67
1278,00;96,65
1277,00;96,64
1276,00;96,62
1275,00;96,61
1274,00;96,59
1273,00;96,56
1272,00;96,52
1271,00;96,48
1270,00;96,44
1269,00;96,41
1268,00;96,38
1267,00;96,35
1266,00;96,32
1265,00;96,30
1264,00;96,28
1263,00;96,26
1262,00;96,24
1261,00;96,22
1260,00;96,20
1259,00;96,18
1258,00;96,17
1257,00;96,15
1256,00;96,13
1255,00;96,10
1254,00;96,07
1253,00;96,06
1252,00;96,06
1251,00;96,06
1250,00;96,06
1249,00;96,04
1248,00;96,02
1247,00;96,01
1246,00;96,00
1245,00;96,00
1244,00;96,01
1243,00;96,02
1242,00;96,05
1241,00;96,08
1240,00;96,11
1239,00;96,15
1238,00;96,20
1237,00;96,26
1236,00;96,31
1235,00;96,36
1234,00;96,41
1233,00;96,46
1232,00;96,49
1231,00;96,52
1230,00;96,55
1229,00;96,56
1228,00;96,55
1227,00;96,51
1226,00;96,46
1225,00;96,40
1224,00;96,34
1223,00;96,29
1222,00;96,28
1221,00;96,31
1220,00;96,40
1219,00;96,51
1218,00;96,59
1217,00;96,60
1216,00;96,56
1215,00;96,47
1214,00;96,38
1213,00;96,30
1212,00;96,25
1211,00;96,22
1210,00;96,21
1209,00;96,22
1208,00;96,22
1207,00;96,21
1206,00;96,21
1205,00;96,19
1204,00;96,16
1203,00;96,12
1202,00;96,07
1201,00;96,02
1200,00;95,96
1199,00;95,90
1198,00;95,84
1197,00;95,78
1196,00;95,71
1195,00;95,65
1194,00;95,60
1193,00;95,56
1192,00;95,51
1191,00;95,45
1190,00;95,41
1189,00;95,37
1188,00;95,34
1187,00;95,31
1186,00;95,27
1185,00;95,23
1184,00;95,20
1183,00;95,17
1182,00;95,16
1181,00;95,14
1180,00;95,12
1179,00;95,09
1178,00;95,05
1177,00;95,01
1176,00;94,97
1175,00;94,94
1174,00;94,93
1173,00;94,92
1172,00;94,91
1171,00;94,91
1170,00;94,92
1169,00;94,93
1168,00;94,92
1167,00;94,89
1166,00;94,86
1165,00;94,83
1164,00;94,82
1163,00;94,84
1162,00;94,85
1161,00;94,86
1160,00;94,85
1159,00;94,83
1158,00;94,83
1157,00;94,82
1156,00;94,82
1155,00;94,82
1154,00;94,82
1153,00;94,83
1152,00;94,83
1151,00;94,83
1150,00;94,83
1149,00;94,83
1148,00;94,82
1147,00;94,81
1146,00;94,80
1145,00;94,81
1144,00;94,81
1143,00;94,81
1142,00;94,81
1141,00;94,79
1140,00;94,77
1139,00;94,76
1138,00;94,75
1137,00;94,73
1136,00;94,71
1135,00;94,69
1134,00;94,69
1133,00;94,69
1132,00;94,69
1131,00;94,68
1130,00;94,67
1129,00;94,66
1128,00;94,67
1127,00;94,68
1126,00;94,69
1125,00;94,70
1124,00;94,72
1123,00;94,74
1122,00;94,77
1121,00;94,79
1120,00;94,79
1119,00;94,79
1118,00;94,79
1117,00;94,78
1116,00;94,75
1115,00;94,73
1114,00;94,73
1113,00;94,73
1112,00;94,73
1111,00;94,73
1110,00;94,72
1109,00;94,72
1108,00;94,71
1107,00;94,71
1106,00;94,71
1105,00;94,72
1104,00;94,72
1103,00;94,74
1102,00;94,76
1101,00;94,80
1100,00;94,82
1099,00;94,83
1098,00;94,84
1097,00;94,86
1096,00;94,87
1095,00;94,86
1094,00;94,85
1093,00;94,84
1092,00;94,86
1091,00;94,89
1090,00;94,91
1089,00;94,91
1088,00;94,89
1087,00;94,86
1086,00;94,86
1085,00;94,86
1084,00;94,87
1083,00;94,89
1082,00;94,91
1081,00;94,92
1080,00;94,91
1079,00;94,89
1078,00;94,88
1077,00;94,89
1076,00;94,90
1075,00;94,92
1074,00;94,93
1073,00;94,94
1072,00;94,93
1071,00;94,92
1070,00;94,92
1069,00;94,93
1068,00;94,96
1067,00;94,99
1066,00;95,01
1065,00;95,03
1064,00;95,04
1063,00;95,04
1062,00;95,04
1061,00;95,03
1060,00;95,03
1059,00;95,02
1058,00;95,02
1057,00;95,00
1056,00;94,98
1055,00;94,97
1054,00;94,97
1053,00;94,98
1052,00;94,97
1051,00;94,99
1050,00;95,03
1049,00;95,07
1048,00;95,09
1047,00;95,08
1046,00;95,07
1045,00;95,07
1044,00;95,07
1043,00;95,07
1042,00;95,07
1041,00;95,07
1040,00;95,08
1039,00;95,10
1038,00;95,12
1037,00;95,13
1036,00;95,12
1035,00;95,12
1034,00;95,13
1033,00;95,15
1032,00;95,18
1031,00;95,20
1030,00;95,22
1029,00;95,23
1028,00;95,24
1027,00;95,25
1026,00;95,27
1025,00;95,29
1024,00;95,31
1023,00;95,32
1022,00;95,33
1021,00;95,33
1020,00;95,32
1019,00;95,32
1018,00;95,32
1017,00;95,32
1016,00;95,31
1015,00;95,30
1014,00;95,30
1013,00;95,31
1012,00;95,33
1011,00;95,36
1010,00;95,39
1009,00;95,42
1008,00;95,42
1007,00;95,42
1006,00;95,43
1005,00;95,44
1004,00;95,46
1003,00;95,47
1002,00;95,46
1001,00;95,45
1000,00;95,45
999,00;95,46
998,00;95,48
997,00;95,49
996,00;95,51
995,00;95,52
994,00;95,55
993,00;95,58
992,00;95,59
991,00;95,60
990,00;95,60
989,00;95,61
988,00;95,62
987,00;95,61
986,00;95,59
985,00;95,57
984,00;95,55
983,00;95,56
982,00;95,58
981,00;95,61
980,00;95,64
979,00;95,66
978,00;95,68
977,00;95,70
976,00;95,71
975,00;95,73
974,00;95,75
973,00;95,77
972,00;95,78
971,00;95,79
970,00;95,78
969,00;95,76
968,00;95,75
967,00;95,75
966,00;95,76
965,00;95,77
964,00;95,77
963,00;95,77
962,00;95,78
961,00;95,79
960,00;95,79
959,00;95,79
958,00;95,80
957,00;95,80
956,00;95,81
955,00;95,82
954,00;95,83
953,00;95,84
952,00;95,85
951,00;95,86
950,00;95,86
949,00;95,86
948,00;95,84
947,00;95,82
946,00;95,83
945,00;95,84
944,00;95,85
943,00;95,86
942,00;95,86
941,00;95,85
940,00;95,85
939,00;95,84
938,00;95,82
937,00;95,81
936,00;95,79
935,00;95,80
934,00;95,82
933,00;95,84
932,00;95,85
931,00;95,83
930,00;95,79
929,00;95,77
928,00;95,77
927,00;95,78
926,00;95,80
925,00;95,83
924,00;95,85
923,00;95,86
922,00;95,86
921,00;95,84
920,00;95,81
919,00;95,79
918,00;95,80
917,00;95,82
916,00;95,84
915,00;95,85
914,00;95,85
913,00;95,84
912,00;95,84
911,00;95,84
910,00;95,85
909,00;95,85
908,00;95,85
907,00;95,86
906,00;95,88
905,00;95,88
904,00;95,85
903,00;95,80
902,00;95,76
901,00;95,74
900,00;95,74
899,00;95,76
898,00;95,79
897,00;95,84
896,00;95,88
895,00;95,92
894,00;95,93
893,00;95,93
892,00;95,91
891,00;95,88
890,00;95,86
889,00;95,84
888,00;95,82
887,00;95,82
886,00;95,84
885,00;95,87
884,00;95,88
883,00;95,88
882,00;95,85
881,00;95,84
880,00;95,84
879,00;95,86
878,00;95,88
877,00;95,91
876,00;95,94
875,00;95,96
874,00;95,97
873,00;95,95
872,00;95,93
871,00;95,92
870,00;95,92
869,00;95,92
868,00;95,92
867,00;95,92
866,00;95,91
865,00;95,90
864,00;95,88
863,00;95,87
862,00;95,86
861,00;95,87
860,00;95,89
859,00;95,93
858,00;95,95
857,00;95,97
856,00;95,98
855,00;95,99
854,00;96,00
853,00;96,01
852,00;96,00
851,00;96,00
850,00;96,01
849,00;96,02
848,00;96,03
847,00;96,04
846,00;96,04
845,00;96,03
844,00;96,04
843,00;96,06
842,00;96,09
841,00;96,10
840,00;96,09
839,00;96,08
838,00;96,09
837,00;96,11
836,00;96,12
835,00;96,12
834,00;96,13
833,00;96,15
832,00;96,18
831,00;96,20
830,00;96,20
829,00;96,16
828,00;96,13
827,00;96,11
826,00;96,13
825,00;96,16
824,00;96,17
823,00;96,14
822,00;96,10
821,00;96,07
820,00;96,07
819,00;96,10
818,00;96,15
817,00;96,19
816,00;96,22
815,00;96,22
814,00;96,22
813,00;96,23
812,00;96,23
811,00;96,21
810,00;96,18
809,00;96,15
808,00;96,13
807,00;96,13
806,00;96,15
805,00;96,17
804,00;96,18
803,00;96,18
802,00;96,20
801,00;96,24
800,00;96,28
799,00;96,30
798,00;96,26
797,00;96,20
796,00;96,14
795,00;96,12
794,00;96,14
793,00;96,20
792,00;96,25
791,00;96,29
790,00;96,31
789,00;96,32
788,00;96,32
787,00;96,31
786,00;96,29
785,00;96,28
784,00;96,27
783,00;96,27
782,00;96,28
781,00;96,28
780,00;96,27
779,00;96,25
778,00;96,23
777,00;96,23
776,00;96,24
775,00;96,26
774,00;96,28
773,00;96,29
772,00;96,29
771,00;96,29
770,00;96,30
769,00;96,32
768,00;96,36
767,00;96,39
766,00;96,41
765,00;96,40
764,00;96,38
763,00;96,35
762,00;96,34
761,00;96,35
760,00;96,37
759,00;96,39
758,00;96,40
757,00;96,40
756,00;96,40
755,00;96,42
754,00;96,45
753,00;96,47
752,00;96,48
751,00;96,48
750,00;96,48
749,00;96,47
748,00;96,46
747,00;96,46
746,00;96,48
745,00;96,50
744,00;96,49
743,00;96,46
742,00;96,42
741,00;96,39
740,00;96,39
739,00;96,42
738,00;96,45
737,00;96,45
736,00;96,43
735,00;96,41
734,00;96,42
733,00;96,45
732,00;96,48
731,00;96,50
730,00;96,53
729,00;96,54
728,00;96,54
727,00;96,51
726,00;96,48
725,00;96,47
724,00;96,47
723,00;96,48
722,00;96,46
721,00;96,42
720,00;96,38
719,00;96,36
718,00;96,34
717,00;96,32
716,00;96,30
715,00;96,29
714,00;96,27
713,00;96,26
712,00;96,25
711,00;96,26
710,00;96,27
709,00;96,27
708,00;96,23
707,00;96,17
706,00;96,11
705,00;96,09
704,00;96,08
703,00;96,09
702,00;96,09
701,00;96,08
700,00;96,06
699,00;96,03
698,00;95,99
697,00;95,91
696,00;95,81
695,00;95,73
694,00;95,68
693,00;95,66
692,00;95,67
691,00;95,66
690,00;95,64
689,00;95,60
688,00;95,54
687,00;95,49
686,00;95,46
685,00;95,45
684,00;95,43
683,00;95,39
682,00;95,32
681,00;95,22
680,00;95,13
679,00;95,06
678,00;95,01
677,00;94,93
676,00;94,82
675,00;94,70
674,00;94,60
673,00;94,51
672,00;94,41
671,00;94,27
670,00;94,07
669,00;93,81
668,00;93,57
667,00;93,47
666,00;93,42
665,00;93,30
664,00;93,13
663,00;92,95
662,00;92,82
661,00;92,68
660,00;92,50
659,00;92,28
658,00;92,08
657,00;91,88
656,00;91,67
655,00;91,41
654,00;91,08
653,00;90,72
652,00;90,38
651,00;90,09
650,00;89,79
649,00;89,42
648,00;88,99
647,00;88,65
646,00;88,43
645,00;88,26
644,00;88,07
643,00;87,91
642,00;87,78
641,00;87,57
640,00;87,22
639,00;86,83
638,00;86,54
637,00;86,31
636,00;86,08
635,00;85,94
634,00;85,95
633,00;86,02
632,00;85,94
631,00;85,67
630,00;85,30
629,00;84,91
628,00;84,59
627,00;84,38
626,00;84,21
625,00;83,96
624,00;83,67
623,00;83,60
622,00;83,87
621,00;84,18
620,00;84,26
619,00;84,09
618,00;83,81
617,00;83,44
616,00;83,09
615,00;82,95
614,00;83,01
613,00;83,01
612,00;82,81
611,00;82,60
610,00;82,51
609,00;82,40
608,00;82,21
607,00;82,16
606,00;82,34
605,00;82,45
604,00;82,20
603,00;81,68
602,00;81,11
601,00;80,55
600,00;80,06
