Created as New Dataset;Sample 000 By Administrator Date maandag, maart 02 2026
cm-1;%T
4000,00;99,41
3999,00;99,41
3998,00;99,41
3997,00;99,41
3996,00;99,40
3995,00;99,41
3994,00;99,42
3993,00;99,42
3992,00;99,43
3991,00;99,43
3990,00;99,43
3989,00;99,43
3988,00;99,42
3987,00;99,42
3986,00;99,41
3985,00;99,41
3984,00;99,40
3983,00;99,40
3982,00;99,40
3981,00;99,41
3980,00;99,41
3979,00;99,42
3978,00;99,42
3977,00;99,42
3976,00;99,43
3975,00;99,44
3974,00;99,46
3973,00;99,47
3972,00;99,47
3971,00;99,46
3970,00;99,46
3969,00;99,47
3968,00;99,48
3967,00;99,48
3966,00;99,48
3965,00;99,46
3964,00;99,44
3963,00;99,43
3962,00;99,43
3961,00;99,44
3960,00;99,45
3959,00;99,46
3958,00;99,47
3957,00;99,49
3956,00;99,49
3955,00;99,49
3954,00;99,48
3953,00;99,48
3952,00;99,49
3951,00;99,51
3950,00;99,52
3949,00;99,53
3948,00;99,53
3947,00;99,52
3946,00;99,51
3945,00;99,51
3944,00;99,52
3943,00;99,54
3942,00;99,55
3941,00;99,54
3940,00;99,53
3939,00;99,52
3938,00;99,51
3937,00;99,51
3936,00;99,52
3935,00;99,52
3934,00;99,52
3933,00;99,52
3932,00;99,52
3931,00;99,53
3930,00;99,54
3929,00;99,55
3928,00;99,54
3927,00;99,53
3926,00;99,51
3925,00;99,49
3924,00;99,49
3923,00;99,49
3922,00;99,50
3921,00;99,50
3920,00;99,50
3919,00;99,51
3918,00;99,54
3917,00;99,57
3916,00;99,61
3915,00;99,62
3914,00;99,62
3913,00;99,59
3912,00;99,57
3911,00;99,56
3910,00;99,56
3909,00;99,57
3908,00;99,56
3907,00;99,54
3906,00;99,51
3905,00;99,47
3904,00;99,46
3903,00;99,48
3902,00;99,52
3901,00;99,56
3900,00;99,57
3899,00;99,57
3898,00;99,56
3897,00;99,55
3896,00;99,54
3895,00;99,54
3894,00;99,55
3893,00;99,56
3892,00;99,58
3891,00;99,60
3890,00;99,61
3889,00;99,60
3888,00;99,58
3887,00;99,58
3886,00;99,59
3885,00;99,60
3884,00;99,60
3883,00;99,58
3882,00;99,56
3881,00;99,56
3880,00;99,57
3879,00;99,59
3878,00;99,59
3877,00;99,59
3876,00;99,59
3875,00;99,60
3874,00;99,62
3873,00;99,63
3872,00;99,63
3871,00;99,63
3870,00;99,62
3869,00;99,60
3868,00;99,59
3867,00;99,58
3866,00;99,57
3865,00;99,57
3864,00;99,59
3863,00;99,60
3862,00;99,61
3861,00;99,61
3860,00;99,62
3859,00;99,63
3858,00;99,65
3857,00;99,68
3856,00;99,71
3855,00;99,75
3854,00;99,78
3853,00;99,78
3852,00;99,74
3851,00;99,70
3850,00;99,67
3849,00;99,66
3848,00;99,65
3847,00;99,63
3846,00;99,62
3845,00;99,61
3844,00;99,61
3843,00;99,61
3842,00;99,62
3841,00;99,62
3840,00;99,62
3839,00;99,62
3838,00;99,62
3837,00;99,63
3836,00;99,63
3835,00;99,63
3834,00;99,63
3833,00;99,62
3832,00;99,60
3831,00;99,59
3830,00;99,59
3829,00;99,60
3828,00;99,63
3827,00;99,65
3826,00;99,66
3825,00;99,66
3824,00;99,65
3823,00;99,63
3822,00;99,63
3821,00;99,64
3820,00;99,67
3819,00;99,69
3818,00;99,68
3817,00;99,66
3816,00;99,64
3815,00;99,63
3814,00;99,66
3813,00;99,68
3812,00;99,71
3811,00;99,72
3810,00;99,72
3809,00;99,71
3808,00;99,69
3807,00;99,68
3806,00;99,68
3805,00;99,68
3804,00;99,69
3803,00;99,70
3802,00;99,69
3801,00;99,68
3800,00;99,65
3799,00;99,63
3798,00;99,63
3797,00;99,63
3796,00;99,64
3795,00;99,65
3794,00;99,65
3793,00;99,65
3792,00;99,65
3791,00;99,66
3790,00;99,66
3789,00;99,66
3788,00;99,65
3787,00;99,65
3786,00;99,65
3785,00;99,66
3784,00;99,66
3783,00;99,66
3782,00;99,65
3781,00;99,65
3780,00;99,62
3779,00;99,59
3778,00;99,57
3777,00;99,56
3776,00;99,56
3775,00;99,56
3774,00;99,56
3773,00;99,54
3772,00;99,54
3771,00;99,55
3770,00;99,59
3769,00;99,63
3768,00;99,68
3767,00;99,70
3766,00;99,71
3765,00;99,70
3764,00;99,66
3763,00;99,62
3762,00;99,58
3761,00;99,56
3760,00;99,58
3759,00;99,60
3758,00;99,63
3757,00;99,65
3756,00;99,66
3755,00;99,66
3754,00;99,66
3753,00;99,65
3752,00;99,65
3751,00;99,66
3750,00;99,69
3749,00;99,70
3748,00;99,70
3747,00;99,69
3746,00;99,67
3745,00;99,66
3744,00;99,65
3743,00;99,61
3742,00;99,58
3741,00;99,54
3740,00;99,52
3739,00;99,49
3738,00;99,48
3737,00;99,47
3736,00;99,47
3735,00;99,48
3734,00;99,50
3733,00;99,52
3732,00;99,55
3731,00;99,57
3730,00;99,58
3729,00;99,58
3728,00;99,59
3727,00;99,58
3726,00;99,58
3725,00;99,56
3724,00;99,56
3723,00;99,58
3722,00;99,60
3721,00;99,62
3720,00;99,64
3719,00;99,66
3718,00;99,67
3717,00;99,68
3716,00;99,67
3715,00;99,66
3714,00;99,63
3713,00;99,60
3712,00;99,57
3711,00;99,55
3710,00;99,54
3709,00;99,54
3708,00;99,54
3707,00;99,53
3706,00;99,53
3705,00;99,54
3704,00;99,55
3703,00;99,56
3702,00;99,55
3701,00;99,53
3700,00;99,51
3699,00;99,52
3698,00;99,53
3697,00;99,55
3696,00;99,56
3695,00;99,57
3694,00;99,59
3693,00;99,61
3692,00;99,64
3691,00;99,66
3690,00;99,65
3689,00;99,63
3688,00;99,59
3687,00;99,56
3686,00;99,53
3685,00;99,51
3684,00;99,50
3683,00;99,49
3682,00;99,48
3681,00;99,49
3680,00;99,50
3679,00;99,51
3678,00;99,52
3677,00;99,51
3676,00;99,47
3675,00;99,43
3674,00;99,41
3673,00;99,40
3672,00;99,39
3671,00;99,39
3670,00;99,38
3669,00;99,39
3668,00;99,39
3667,00;99,39
3666,00;99,37
3665,00;99,35
3664,00;99,32
3663,00;99,29
3662,00;99,27
3661,00;99,26
3660,00;99,25
3659,00;99,24
3658,00;99,22
3657,00;99,21
3656,00;99,20
3655,00;99,19
3654,00;99,19
3653,00;99,19
3652,00;99,19
3651,00;99,18
3650,00;99,15
3649,00;99,12
3648,00;99,09
3647,00;99,07
3646,00;99,05
3645,00;99,02
3644,00;98,99
3643,00;98,96
3642,00;98,93
3641,00;98,91
3640,00;98,88
3639,00;98,86
3638,00;98,83
3637,00;98,79
3636,00;98,76
3635,00;98,72
3634,00;98,69
3633,00;98,66
3632,00;98,64
3631,00;98,62
3630,00;98,60
3629,00;98,57
3628,00;98,53
3627,00;98,49
3626,00;98,46
3625,00;98,41
3624,00;98,37
3623,00;98,32
3622,00;98,27
3621,00;98,24
3620,00;98,23
3619,00;98,22
3618,00;98,20
3617,00;98,17
3616,00;98,10
3615,00;98,02
3614,00;97,93
3613,00;97,85
3612,00;97,80
3611,00;97,76
3610,00;97,73
3609,00;97,69
3608,00;97,62
3607,00;97,55
3606,00;97,48
3605,00;97,42
3604,00;97,37
3603,00;97,30
3602,00;97,23
3601,00;97,15
3600,00;97,09
3599,00;97,05
3598,00;97,02
3597,00;96,99
3596,00;96,94
3595,00;96,85
3594,00;96,74
3593,00;96,62
3592,00;96,52
3591,00;96,43
3590,00;96,35
3589,00;96,25
3588,00;96,13
3587,00;96,01
3586,00;95,92
3585,00;95,84
3584,00;95,77
3583,00;95,69
3582,00;95,62
3581,00;95,54
3580,00;95,46
3579,00;95,36
3578,00;95,26
3577,00;95,14
3576,00;95,03
3575,00;94,93
3574,00;94,83
3573,00;94,73
3572,00;94,63
3571,00;94,53
3570,00;94,43
3569,00;94,32
3568,00;94,18
3567,00;94,03
3566,00;93,90
3565,00;93,78
3564,00;93,68
3563,00;93,57
3562,00;93,45
3561,00;93,33
3560,00;93,22
3559,00;93,10
3558,00;92,99
3557,00;92,87
3556,00;92,74
3555,00;92,61
3554,00;92,47
3553,00;92,32
3552,00;92,18
3551,00;92,05
3550,00;91,93
3549,00;91,82
3548,00;91,69
3547,00;91,53
3546,00;91,34
3545,00;91,15
3544,00;90,97
3543,00;90,82
3542,00;90,69
3541,00;90,56
3540,00;90,43
3539,00;90,30
3538,00;90,15
3537,00;89,99
3536,00;89,82
3535,00;89,66
3534,00;89,51
3533,00;89,36
3532,00;89,21
3531,00;89,05
3530,00;88,90
3529,00;88,74
3528,00;88,59
3527,00;88,44
3526,00;88,28
3525,00;88,11
3524,00;87,92
3523,00;87,74
3522,00;87,56
3521,00;87,39
3520,00;87,23
3519,00;87,05
3518,00;86,88
3517,00;86,71
3516,00;86,54
3515,00;86,38
3514,00;86,22
3513,00;86,05
3512,00;85,85
3511,00;85,63
3510,00;85,41
3509,00;85,19
3508,00;85,01
3507,00;84,86
3506,00;84,71
3505,00;84,54
3504,00;84,34
3503,00;84,13
3502,00;83,92
3501,00;83,74
3500,00;83,56
3499,00;83,39
3498,00;83,19
3497,00;82,98
3496,00;82,77
3495,00;82,56
3494,00;82,38
3493,00;82,22
3492,00;82,06
3491,00;81,89
3490,00;81,71
3489,00;81,53
3488,00;81,32
3487,00;81,11
3486,00;80,89
3485,00;80,68
3484,00;80,47
3483,00;80,27
3482,00;80,06
3481,00;79,85
3480,00;79,65
3479,00;79,46
3478,00;79,28
3477,00;79,10
3476,00;78,91
3475,00;78,72
3474,00;78,51
3473,00;78,29
3472,00;78,08
3471,00;77,88
3470,00;77,68
3469,00;77,49
3468,00;77,29
3467,00;77,09
3466,00;76,88
3465,00;76,66
3464,00;76,46
3463,00;76,26
3462,00;76,06
3461,00;75,86
3460,00;75,67
3459,00;75,47
3458,00;75,27
3457,00;75,07
3456,00;74,87
3455,00;74,67
3454,00;74,47
3453,00;74,27
3452,00;74,09
3451,00;73,91
3450,00;73,72
3449,00;73,51
3448,00;73,28
3447,00;73,05
3446,00;72,84
3445,00;72,65
3444,00;72,48
3443,00;72,29
3442,00;72,09
3441,00;71,88
3440,00;71,67
3439,00;71,47
3438,00;71,27
3437,00;71,06
3436,00;70,86
3435,00;70,67
3434,00;70,49
3433,00;70,31
3432,00;70,13
3431,00;69,94
3430,00;69,75
3429,00;69,55
3428,00;69,35
3427,00;69,15
3426,00;68,96
3425,00;68,77
3424,00;68,58
3423,00;68,39
3422,00;68,20
3421,00;68,01
3420,00;67,82
3419,00;67,64
3418,00;67,46
3417,00;67,28
3416,00;67,10
3415,00;66,91
3414,00;66,72
3413,00;66,53
3412,00;66,34
3411,00;66,15
3410,00;65,97
3409,00;65,78
3408,00;65,60
3407,00;65,42
3406,00;65,24
3405,00;65,05
3404,00;64,86
3403,00;64,68
3402,00;64,51
3401,00;64,36
3400,00;64,20
3399,00;64,04
3398,00;63,88
3397,00;63,71
3396,00;63,55
3395,00;63,39
3394,00;63,21
3393,00;63,03
3392,00;62,85
3391,00;62,69
3390,00;62,54
3389,00;62,40
3388,00;62,27
3387,00;62,12
3386,00;61,96
3385,00;61,78
3384,00;61,59
3383,00;61,42
3382,00;61,26
3381,00;61,12
3380,00;60,98
3379,00;60,83
3378,00;60,67
3377,00;60,52
3376,00;60,38
3375,00;60,24
3374,00;60,11
3373,00;59,98
3372,00;59,84
3371,00;59,70
3370,00;59,56
3369,00;59,41
3368,00;59,28
3367,00;59,14
3366,00;59,00
3365,00;58,86
3364,00;58,73
3363,00;58,59
3362,00;58,46
3361,00;58,33
3360,00;58,21
3359,00;58,10
3358,00;57,99
3357,00;57,87
3356,00;57,75
3355,00;57,63
3354,00;57,51
3353,00;57,39
3352,00;57,27
3351,00;57,15
3350,00;57,04
3349,00;56,95
3348,00;56,86
3347,00;56,76
3346,00;56,65
3345,00;56,53
3344,00;56,41
3343,00;56,30
3342,00;56,19
3341,00;56,09
3340,00;56,00
3339,00;55,91
3338,00;55,83
3337,00;55,74
3336,00;55,66
3335,00;55,59
3334,00;55,53
3333,00;55,46
3332,00;55,39
3331,00;55,32
3330,00;55,24
3329,00;55,16
3328,00;55,08
3327,00;54,99
3326,00;54,90
3325,00;54,81
3324,00;54,74
3323,00;54,68
3322,00;54,63
3321,00;54,58
3320,00;54,52
3319,00;54,47
3318,00;54,42
3317,00;54,36
3316,00;54,31
3315,00;54,27
3314,00;54,24
3313,00;54,20
3312,00;54,16
3311,00;54,10
3310,00;54,03
3309,00;53,96
3308,00;53,89
3307,00;53,83
3306,00;53,79
3305,00;53,76
3304,00;53,73
3303,00;53,70
3302,00;53,69
3301,00;53,68
3300,00;53,66
3299,00;53,65
3298,00;53,63
3297,00;53,60
3296,00;53,58
3295,00;53,56
3294,00;53,55
3293,00;53,54
3292,00;53,53
3291,00;53,53
3290,00;53,53
3289,00;53,53
3288,00;53,54
3287,00;53,55
3286,00;53,55
3285,00;53,56
3284,00;53,56
3283,00;53,57
3282,00;53,59
3281,00;53,61
3280,00;53,63
3279,00;53,65
3278,00;53,66
3277,00;53,67
3276,00;53,69
3275,00;53,71
3274,00;53,74
3273,00;53,75
3272,00;53,77
3271,00;53,79
3270,00;53,83
3269,00;53,87
3268,00;53,92
3267,00;53,98
3266,00;54,03
3265,00;54,07
3264,00;54,11
3263,00;54,14
3262,00;54,18
3261,00;54,23
3260,00;54,28
3259,00;54,33
3258,00;54,39
3257,00;54,44
3256,00;54,50
3255,00;54,57
3254,00;54,65
3253,00;54,73
3252,00;54,81
3251,00;54,88
3250,00;54,94
3249,00;55,00
3248,00;55,05
3247,00;55,13
3246,00;55,21
3245,00;55,31
3244,00;55,41
3243,00;55,51
3242,00;55,61
3241,00;55,70
3240,00;55,79
3239,00;55,88
3238,00;55,98
3237,00;56,08
3236,00;56,18
3235,00;56,28
3234,00;56,38
3233,00;56,49
3232,00;56,61
3231,00;56,73
3230,00;56,85
3229,00;56,97
3228,00;57,09
3227,00;57,21
3226,00;57,33
3225,00;57,45
3224,00;57,57
3223,00;57,70
3222,00;57,85
3221,00;57,99
3220,00;58,13
3219,00;58,25
3218,00;58,36
3217,00;58,48
3216,00;58,61
3215,00;58,75
3214,00;58,91
3213,00;59,07
3212,00;59,23
3211,00;59,40
3210,00;59,56
3209,00;59,72
3208,00;59,88
3207,00;60,03
3206,00;60,18
3205,00;60,33
3204,00;60,49
3203,00;60,65
3202,00;60,82
3201,00;60,98
3200,00;61,16
3199,00;61,35
3198,00;61,54
3197,00;61,74
3196,00;61,93
3195,00;62,11
3194,00;62,28
3193,00;62,44
3192,00;62,61
3191,00;62,79
3190,00;62,96
3189,00;63,15
3188,00;63,34
3187,00;63,54
3186,00;63,73
3185,00;63,91
3184,00;64,10
3183,00;64,30
3182,00;64,51
3181,00;64,71
3180,00;64,93
3179,00;65,14
3178,00;65,36
3177,00;65,57
3176,00;65,78
3175,00;65,98
3174,00;66,18
3173,00;66,38
3172,00;66,58
3171,00;66,78
3170,00;66,99
3169,00;67,20
3168,00;67,41
3167,00;67,62
3166,00;67,83
3165,00;68,04
3164,00;68,24
3163,00;68,45
3162,00;68,67
3161,00;68,88
3160,00;69,09
3159,00;69,31
3158,00;69,53
3157,00;69,75
3156,00;69,96
3155,00;70,17
3154,00;70,39
3153,00;70,62
3152,00;70,84
3151,00;71,07
3150,00;71,28
3149,00;71,49
3148,00;71,71
3147,00;71,92
3146,00;72,15
3145,00;72,38
3144,00;72,60
3143,00;72,82
3142,00;73,03
3141,00;73,23
3140,00;73,43
3139,00;73,64
3138,00;73,86
3137,00;74,08
3136,00;74,29
3135,00;74,51
3134,00;74,72
3133,00;74,93
3132,00;75,14
3131,00;75,35
3130,00;75,56
3129,00;75,77
3128,00;75,98
3127,00;76,19
3126,00;76,39
3125,00;76,60
3124,00;76,80
3123,00;76,99
3122,00;77,18
3121,00;77,38
3120,00;77,58
3119,00;77,78
3118,00;77,98
3117,00;78,17
3116,00;78,36
3115,00;78,56
3114,00;78,76
3113,00;78,95
3112,00;79,14
3111,00;79,33
3110,00;79,53
3109,00;79,73
3108,00;79,92
3107,00;80,11
3106,00;80,29
3105,00;80,48
3104,00;80,66
3103,00;80,85
3102,00;81,03
3101,00;81,20
3100,00;81,38
3099,00;81,55
3098,00;81,72
3097,00;81,89
3096,00;82,06
3095,00;82,24
3094,00;82,43
3093,00;82,60
3092,00;82,77
3091,00;82,93
3090,00;83,07
3089,00;83,23
3088,00;83,38
3087,00;83,54
3086,00;83,69
3085,00;83,84
3084,00;83,99
3083,00;84,14
3082,00;84,31
3081,00;84,47
3080,00;84,63
3079,00;84,77
3078,00;84,90
3077,00;85,02
3076,00;85,16
3075,00;85,31
3074,00;85,46
3073,00;85,62
3072,00;85,77
3071,00;85,91
3070,00;86,04
3069,00;86,17
3068,00;86,29
3067,00;86,42
3066,00;86,54
3065,00;86,67
3064,00;86,79
3063,00;86,91
3062,00;87,03
3061,00;87,15
3060,00;87,26
3059,00;87,37
3058,00;87,47
3057,00;87,58
3056,00;87,69
3055,00;87,80
3054,00;87,92
3053,00;88,05
3052,00;88,16
3051,00;88,26
3050,00;88,36
3049,00;88,45
3048,00;88,55
3047,00;88,64
3046,00;88,73
3045,00;88,82
3044,00;88,91
3043,00;88,99
3042,00;89,08
3041,00;89,16
3040,00;89,25
3039,00;89,34
3038,00;89,44
3037,00;89,53
3036,00;89,62
3035,00;89,70
3034,00;89,78
3033,00;89,86
3032,00;89,94
3031,00;90,00
3030,00;90,07
3029,00;90,14
3028,00;90,21
3027,00;90,28
3026,00;90,35
3025,00;90,44
3024,00;90,52
3023,00;90,60
3022,00;90,66
3021,00;90,71
3020,00;90,76
3019,00;90,81
3018,00;90,87
3017,00;90,93
3016,00;90,97
3015,00;91,01
3014,00;91,04
3013,00;91,08
3012,00;91,13
3011,00;91,18
3010,00;91,23
3009,00;91,26
3008,00;91,29
3007,00;91,32
3006,00;91,33
3005,00;91,35
3004,00;91,36
3003,00;91,37
3002,00;91,37
3001,00;91,37
3000,00;91,37
2999,00;91,36
2998,00;91,35
2997,00;91,33
2996,00;91,30
2995,00;91,26
2994,00;91,21
2993,00;91,15
2992,00;91,08
2991,00;91,01
2990,00;90,93
2989,00;90,83
2988,00;90,72
2987,00;90,59
2986,00;90,46
2985,00;90,31
2984,00;90,15
2983,00;89,98
2982,00;89,79
2981,00;89,58
2980,00;89,34
2979,00;89,08
2978,00;88,81
2977,00;88,53
2976,00;88,23
2975,00;87,93
2974,00;87,61
2973,00;87,28
2972,00;86,94
2971,00;86,58
2970,00;86,20
2969,00;85,80
2968,00;85,40
2967,00;85,01
2966,00;84,63
2965,00;84,24
2964,00;83,85
2963,00;83,46
2962,00;83,07
2961,00;82,69
2960,00;82,32
2959,00;81,96
2958,00;81,61
2957,00;81,26
2956,00;80,92
2955,00;80,59
2954,00;80,27
2953,00;79,96
2952,00;79,65
2951,00;79,35
2950,00;79,05
2949,00;78,76
2948,00;78,49
2947,00;78,23
2946,00;77,99
2945,00;77,76
2944,00;77,54
2943,00;77,34
2942,00;77,16
2941,00;77,00
2940,00;76,86
2939,00;76,73
2938,00;76,61
2937,00;76,51
2936,00;76,43
2935,00;76,37
2934,00;76,33
2933,00;76,32
2932,00;76,33
2931,00;76,37
2930,00;76,43
2929,00;76,51
2928,00;76,61
2927,00;76,72
2926,00;76,86
2925,00;77,00
2924,00;77,16
2923,00;77,32
2922,00;77,49
2921,00;77,68
2920,00;77,87
2919,00;78,07
2918,00;78,28
2917,00;78,48
2916,00;78,66
2915,00;78,84
2914,00;79,01
2913,00;79,16
2912,00;79,30
2911,00;79,43
2910,00;79,55
2909,00;79,65
2908,00;79,72
2907,00;79,76
2906,00;79,78
2905,00;79,78
2904,00;79,76
2903,00;79,72
2902,00;79,65
2901,00;79,57
2900,00;79,46
2899,00;79,34
2898,00;79,19
2897,00;79,02
2896,00;78,85
2895,00;78,66
2894,00;78,45
2893,00;78,23
2892,00;78,00
2891,00;77,77
2890,00;77,54
2889,00;77,32
2888,00;77,11
2887,00;76,92
2886,00;76,74
2885,00;76,58
2884,00;76,44
2883,00;76,32
2882,00;76,21
2881,00;76,14
2880,00;76,10
2879,00;76,11
2878,00;76,15
2877,00;76,23
2876,00;76,33
2875,00;76,46
2874,00;76,60
2873,00;76,78
2872,00;76,98
2871,00;77,21
2870,00;77,48
2869,00;77,77
2868,00;78,06
2867,00;78,36
2866,00;78,66
2865,00;78,95
2864,00;79,24
2863,00;79,54
2862,00;79,84
2861,00;80,13
2860,00;80,41
2859,00;80,69
2858,00;80,96
2857,00;81,21
2856,00;81,47
2855,00;81,71
2854,00;81,95
2853,00;82,18
2852,00;82,40
2851,00;82,62
2850,00;82,84
2849,00;83,06
2848,00;83,29
2847,00;83,50
2846,00;83,71
2845,00;83,89
2844,00;84,06
2843,00;84,23
2842,00;84,40
2841,00;84,57
2840,00;84,75
2839,00;84,93
2838,00;85,11
2837,00;85,29
2836,00;85,46
2835,00;85,61
2834,00;85,75
2833,00;85,90
2832,00;86,04
2831,00;86,20
2830,00;86,35
2829,00;86,50
2828,00;86,65
2827,00;86,79
2826,00;86,92
2825,00;87,06
2824,00;87,19
2823,00;87,32
2822,00;87,45
2821,00;87,58
2820,00;87,72
2819,00;87,86
2818,00;87,99
2817,00;88,12
2816,00;88,25
2815,00;88,38
2814,00;88,51
2813,00;88,63
2812,00;88,74
2811,00;88,85
2810,00;88,95
2809,00;89,06
2808,00;89,17
2807,00;89,28
2806,00;89,38
2805,00;89,48
2804,00;89,57
2803,00;89,66
2802,00;89,75
2801,00;89,83
2800,00;89,92
2799,00;90,01
2798,00;90,09
2797,00;90,18
2796,00;90,27
2795,00;90,36
2794,00;90,44
2793,00;90,53
2792,00;90,61
2791,00;90,70
2790,00;90,78
2789,00;90,85
2788,00;90,92
2787,00;90,98
2786,00;91,05
2785,00;91,12
2784,00;91,19
2783,00;91,25
2782,00;91,31
2781,00;91,37
2780,00;91,43
2779,00;91,48
2778,00;91,52
2777,00;91,57
2776,00;91,62
2775,00;91,67
2774,00;91,72
2773,00;91,78
2772,00;91,84
2771,00;91,89
2770,00;91,93
2769,00;91,96
2768,00;92,00
2767,00;92,05
2766,00;92,09
2765,00;92,13
2764,00;92,15
2763,00;92,18
2762,00;92,20
2761,00;92,24
2760,00;92,28
2759,00;92,33
2758,00;92,38
2757,00;92,42
2756,00;92,46
2755,00;92,50
2754,00;92,53
2753,00;92,55
2752,00;92,56
2751,00;92,58
2750,00;92,61
2749,00;92,64
2748,00;92,68
2747,00;92,71
2746,00;92,73
2745,00;92,75
2744,00;92,77
2743,00;92,79
2742,00;92,82
2741,00;92,85
2740,00;92,88
2739,00;92,91
2738,00;92,93
2737,00;92,96
2736,00;92,99
2735,00;93,02
2734,00;93,06
2733,00;93,10
2732,00;93,13
2731,00;93,16
2730,00;93,19
2729,00;93,22
2728,00;93,26
2727,00;93,29
2726,00;93,32
2725,00;93,34
2724,00;93,36
2723,00;93,38
2722,00;93,41
2721,00;93,44
2720,00;93,47
2719,00;93,51
2718,00;93,55
2717,00;93,58
2716,00;93,61
2715,00;93,64
2714,00;93,68
2713,00;93,72
2712,00;93,76
2711,00;93,79
2710,00;93,82
2709,00;93,84
2708,00;93,87
2707,00;93,89
2706,00;93,91
2705,00;93,94
2704,00;93,96
2703,00;93,98
2702,00;94,00
2701,00;94,02
2700,00;94,03
2699,00;94,06
2698,00;94,09
2697,00;94,12
2696,00;94,15
2695,00;94,17
2694,00;94,17
2693,00;94,18
2692,00;94,19
2691,00;94,20
2690,00;94,22
2689,00;94,23
2688,00;94,23
2687,00;94,24
2686,00;94,25
2685,00;94,26
2684,00;94,27
2683,00;94,28
2682,00;94,30
2681,00;94,32
2680,00;94,34
2679,00;94,35
2678,00;94,36
2677,00;94,37
2676,00;94,37
2675,00;94,38
2674,00;94,39
2673,00;94,40
2672,00;94,41
2671,00;94,43
2670,00;94,45
2669,00;94,46
2668,00;94,48
2667,00;94,50
2666,00;94,51
2665,00;94,52
2664,00;94,53
2663,00;94,54
2662,00;94,55
2661,00;94,57
2660,00;94,58
2659,00;94,59
2658,00;94,60
2657,00;94,61
2656,00;94,63
2655,00;94,65
2654,00;94,66
2653,00;94,67
2652,00;94,67
2651,00;94,69
2650,00;94,70
2649,00;94,73
2648,00;94,76
2647,00;94,78
2646,00;94,80
2645,00;94,82
2644,00;94,84
2643,00;94,86
2642,00;94,88
2641,00;94,90
2640,00;94,91
2639,00;94,92
2638,00;94,94
2637,00;94,96
2636,00;94,99
2635,00;95,02
2634,00;95,04
2633,00;95,05
2632,00;95,07
2631,00;95,09
2630,00;95,12
2629,00;95,16
2628,00;95,19
2627,00;95,22
2626,00;95,24
2625,00;95,26
2624,00;95,29
2623,00;95,33
2622,00;95,37
2621,00;95,40
2620,00;95,43
2619,00;95,45
2618,00;95,47
2617,00;95,51
2616,00;95,55
2615,00;95,59
2614,00;95,62
2613,00;95,65
2612,00;95,66
2611,00;95,67
2610,00;95,69
2609,00;95,71
2608,00;95,74
2607,00;95,78
2606,00;95,81
2605,00;95,84
2604,00;95,86
2603,00;95,88
2602,00;95,91
2601,00;95,95
2600,00;95,98
2599,00;96,01
2598,00;96,04
2597,00;96,06
2596,00;96,09
2595,00;96,11
2594,00;96,14
2593,00;96,17
2592,00;96,20
2591,00;96,23
2590,00;96,24
2589,00;96,25
2588,00;96,25
2587,00;96,27
2586,00;96,29
2585,00;96,31
2584,00;96,35
2583,00;96,37
2582,00;96,39
2581,00;96,40
2580,00;96,41
2579,00;96,42
2578,00;96,43
2577,00;96,45
2576,00;96,47
2575,00;96,49
2574,00;96,51
2573,00;96,53
2572,00;96,54
2571,00;96,55
2570,00;96,56
2569,00;96,58
2568,00;96,59
2567,00;96,61
2566,00;96,63
2565,00;96,64
2564,00;96,65
2563,00;96,64
2562,00;96,63
2561,00;96,62
2560,00;96,61
2559,00;96,62
2558,00;96,64
2557,00;96,66
2556,00;96,67
2555,00;96,67
2554,00;96,68
2553,00;96,68
2552,00;96,69
2551,00;96,71
2550,00;96,72
2549,00;96,74
2548,00;96,75
2547,00;96,76
2546,00;96,77
2545,00;96,78
2544,00;96,78
2543,00;96,79
2542,00;96,79
2541,00;96,79
2540,00;96,79
2539,00;96,79
2538,00;96,80
2537,00;96,81
2536,00;96,82
2535,00;96,83
2534,00;96,84
2533,00;96,85
2532,00;96,86
2531,00;96,86
2530,00;96,87
2529,00;96,88
2528,00;96,88
2527,00;96,87
2526,00;96,85
2525,00;96,85
2524,00;96,86
2523,00;96,88
2522,00;96,90
2521,00;96,92
2520,00;96,92
2519,00;96,89
2518,00;96,87
2517,00;96,86
2516,00;96,86
2515,00;96,89
2514,00;96,92
2513,00;96,95
2512,00;96,96
2511,00;96,97
2510,00;96,98
2509,00;97,00
2508,00;97,00
2507,00;97,00
2506,00;97,01
2505,00;97,01
2504,00;97,01
2503,00;97,02
2502,00;97,03
2501,00;97,05
2500,00;97,08
2499,00;97,09
2498,00;97,11
2497,00;97,11
2496,00;97,11
2495,00;97,12
2494,00;97,12
2493,00;97,13
2492,00;97,13
2491,00;97,13
2490,00;97,14
2489,00;97,17
2488,00;97,20
2487,00;97,23
2486,00;97,25
2485,00;97,25
2484,00;97,25
2483,00;97,25
2482,00;97,24
2481,00;97,24
2480,00;97,25
2479,00;97,26
2478,00;97,27
2477,00;97,28
2476,00;97,29
2475,00;97,30
2474,00;97,32
2473,00;97,34
2472,00;97,35
2471,00;97,38
2470,00;97,40
2469,00;97,43
2468,00;97,44
2467,00;97,45
2466,00;97,45
2465,00;97,46
2464,00;97,48
2463,00;97,49
2462,00;97,51
2461,00;97,54
2460,00;97,57
2459,00;97,59
2458,00;97,59
2457,00;97,58
2456,00;97,59
2455,00;97,61
2454,00;97,64
2453,00;97,67
2452,00;97,69
2451,00;97,71
2450,00;97,71
2449,00;97,72
2448,00;97,73
2447,00;97,74
2446,00;97,77
2445,00;97,79
2444,00;97,80
2443,00;97,82
2442,00;97,83
2441,00;97,85
2440,00;97,86
2439,00;97,85
2438,00;97,85
2437,00;97,86
2436,00;97,89
2435,00;97,92
2434,00;97,94
2433,00;97,94
2432,00;97,94
2431,00;97,96
2430,00;97,99
2429,00;98,02
2428,00;98,04
2427,00;98,06
2426,00;98,08
2425,00;98,09
2424,00;98,09
2423,00;98,10
2422,00;98,10
2421,00;98,12
2420,00;98,15
2419,00;98,19
2418,00;98,22
2417,00;98,24
2416,00;98,25
2415,00;98,24
2414,00;98,24
2413,00;98,24
2412,00;98,25
2411,00;98,25
2410,00;98,26
2409,00;98,26
2408,00;98,25
2407,00;98,25
2406,00;98,26
2405,00;98,28
2404,00;98,30
2403,00;98,31
2402,00;98,31
2401,00;98,31
2400,00;98,32
2399,00;98,32
2398,00;98,33
2397,00;98,35
2396,00;98,36
2395,00;98,38
2394,00;98,40
2393,00;98,41
2392,00;98,42
2391,00;98,42
2390,00;98,42
2389,00;98,41
2388,00;98,39
2387,00;98,40
2386,00;98,41
2385,00;98,43
2384,00;98,45
2383,00;98,46
2382,00;98,46
2381,00;98,46
2380,00;98,46
2379,00;98,47
2378,00;98,48
2377,00;98,49
2376,00;98,49
2375,00;98,50
2374,00;98,52
2373,00;98,52
2372,00;98,51
2371,00;98,50
2370,00;98,51
2369,00;98,54
2368,00;98,55
2367,00;98,53
2366,00;98,50
2365,00;98,47
2364,00;98,45
2363,00;98,48
2362,00;98,55
2361,00;98,62
2360,00;98,65
2359,00;98,64
2358,00;98,62
2357,00;98,60
2356,00;98,59
2355,00;98,58
2354,00;98,59
2353,00;98,60
2352,00;98,59
2351,00;98,58
2350,00;98,56
2349,00;98,55
2348,00;98,54
2347,00;98,55
2346,00;98,58
2345,00;98,60
2344,00;98,63
2343,00;98,65
2342,00;98,66
2341,00;98,65
2340,00;98,63
2339,00;98,62
2338,00;98,63
2337,00;98,66
2336,00;98,69
2335,00;98,70
2334,00;98,72
2333,00;98,72
2332,00;98,72
2331,00;98,70
2330,00;98,69
2329,00;98,66
2328,00;98,65
2327,00;98,65
2326,00;98,67
2325,00;98,68
2324,00;98,67
2323,00;98,65
2322,00;98,64
2321,00;98,65
2320,00;98,68
2319,00;98,70
2318,00;98,70
2317,00;98,67
2316,00;98,63
2315,00;98,61
2314,00;98,62
2313,00;98,64
2312,00;98,66
2311,00;98,67
2310,00;98,68
2309,00;98,70
2308,00;98,72
2307,00;98,73
2306,00;98,72
2305,00;98,70
2304,00;98,68
2303,00;98,68
2302,00;98,70
2301,00;98,72
2300,00;98,74
2299,00;98,76
2298,00;98,77
2297,00;98,77
2296,00;98,76
2295,00;98,76
2294,00;98,75
2293,00;98,75
2292,00;98,75
2291,00;98,75
2290,00;98,76
2289,00;98,78
2288,00;98,80
2287,00;98,82
2286,00;98,84
2285,00;98,85
2284,00;98,85
2283,00;98,84
2282,00;98,83
2281,00;98,82
2280,00;98,82
2279,00;98,83
2278,00;98,85
2277,00;98,87
2276,00;98,90
2275,00;98,93
2274,00;98,95
2273,00;98,94
2272,00;98,90
2271,00;98,87
2270,00;98,85
2269,00;98,84
2268,00;98,84
2267,00;98,85
2266,00;98,86
2265,00;98,86
2264,00;98,84
2263,00;98,83
2262,00;98,84
2261,00;98,86
2260,00;98,87
2259,00;98,85
2258,00;98,83
2257,00;98,82
2256,00;98,84
2255,00;98,87
2254,00;98,91
2253,00;98,95
2252,00;98,98
2251,00;98,98
2250,00;98,97
2249,00;98,94
2248,00;98,90
2247,00;98,89
2246,00;98,90
2245,00;98,91
2244,00;98,93
2243,00;98,95
2242,00;98,97
2241,00;98,96
2240,00;98,92
2239,00;98,90
2238,00;98,93
2237,00;98,99
2236,00;99,05
2235,00;99,09
2234,00;99,09
2233,00;99,04
2232,00;98,99
2231,00;98,95
2230,00;98,95
2229,00;98,97
2228,00;98,99
2227,00;99,00
2226,00;99,01
2225,00;99,02
2224,00;99,03
2223,00;99,02
2222,00;98,99
2221,00;98,94
2220,00;98,90
2219,00;98,89
2218,00;98,90
2217,00;98,91
2216,00;98,93
2215,00;98,96
2214,00;98,98
2213,00;99,00
2212,00;99,01
2211,00;99,03
2210,00;99,04
2209,00;99,01
2208,00;98,95
2207,00;98,89
2206,00;98,86
2205,00;98,87
2204,00;98,89
2203,00;98,94
2202,00;98,99
2201,00;99,02
2200,00;99,02
2199,00;99,01
2198,00;99,02
2197,00;99,05
2196,00;99,08
2195,00;99,10
2194,00;99,09
2193,00;99,06
2192,00;99,01
2191,00;98,98
2190,00;98,99
2189,00;99,00
2188,00;99,00
2187,00;98,98
2186,00;98,98
2185,00;98,99
2184,00;98,99
2183,00;99,00
2182,00;99,02
2181,00;99,00
2180,00;98,96
2179,00;98,92
2178,00;98,90
2177,00;98,92
2176,00;98,95
2175,00;98,98
2174,00;99,00
2173,00;99,00
2172,00;99,00
2171,00;99,00
2170,00;98,99
2169,00;98,96
2168,00;98,93
2167,00;98,91
2166,00;98,90
2165,00;98,89
2164,00;98,88
2163,00;98,88
2162,00;98,88
2161,00;98,87
2160,00;98,83
2159,00;98,78
2158,00;98,76
2157,00;98,77
2156,00;98,80
2155,00;98,83
2154,00;98,83
2153,00;98,81
2152,00;98,79
2151,00;98,81
2150,00;98,88
2149,00;98,94
2148,00;98,97
2147,00;98,97
2146,00;98,94
2145,00;98,89
2144,00;98,84
2143,00;98,80
2142,00;98,79
2141,00;98,79
2140,00;98,78
2139,00;98,77
2138,00;98,77
2137,00;98,77
2136,00;98,76
2135,00;98,77
2134,00;98,79
2133,00;98,81
2132,00;98,81
2131,00;98,81
2130,00;98,80
2129,00;98,77
2128,00;98,74
2127,00;98,72
2126,00;98,73
2125,00;98,75
2124,00;98,76
2123,00;98,76
2122,00;98,76
2121,00;98,77
2120,00;98,77
2119,00;98,77
2118,00;98,76
2117,00;98,75
2116,00;98,73
2115,00;98,72
2114,00;98,73
2113,00;98,75
2112,00;98,75
2111,00;98,75
2110,00;98,74
2109,00;98,73
2108,00;98,72
2107,00;98,72
2106,00;98,73
2105,00;98,75
2104,00;98,76
2103,00;98,77
2102,00;98,78
2101,00;98,78
2100,00;98,75
2099,00;98,72
2098,00;98,70
2097,00;98,69
2096,00;98,68
2095,00;98,67
2094,00;98,67
2093,00;98,68
2092,00;98,69
2091,00;98,68
2090,00;98,67
2089,00;98,66
2088,00;98,66
2087,00;98,67
2086,00;98,69
2085,00;98,69
2084,00;98,69
2083,00;98,69
2082,00;98,71
2081,00;98,73
2080,00;98,74
2079,00;98,73
2078,00;98,73
2077,00;98,70
2076,00;98,66
2075,00;98,62
2074,00;98,61
2073,00;98,62
2072,00;98,62
2071,00;98,62
2070,00;98,63
2069,00;98,65
2068,00;98,67
2067,00;98,70
2066,00;98,74
2065,00;98,78
2064,00;98,80
2063,00;98,79
2062,00;98,77
2061,00;98,77
2060,00;98,77
2059,00;98,80
2058,00;98,83
2057,00;98,86
2056,00;98,87
2055,00;98,85
2054,00;98,83
2053,00;98,82
2052,00;98,82
2051,00;98,83
2050,00;98,84
2049,00;98,83
2048,00;98,80
2047,00;98,79
2046,00;98,79
2045,00;98,80
2044,00;98,81
2043,00;98,85
2042,00;98,89
2041,00;98,92
2040,00;98,91
2039,00;98,90
2038,00;98,90
2037,00;98,88
2036,00;98,86
2035,00;98,85
2034,00;98,88
2033,00;98,92
2032,00;98,94
2031,00;98,95
2030,00;98,96
2029,00;98,98
2028,00;99,01
2027,00;99,03
2026,00;99,05
2025,00;99,04
2024,00;99,01
2023,00;98,97
2022,00;98,94
2021,00;98,89
2020,00;98,84
2019,00;98,82
2018,00;98,87
2017,00;98,93
2016,00;98,95
2015,00;98,95
2014,00;98,95
2013,00;98,97
2012,00;98,99
2011,00;99,00
2010,00;99,01
2009,00;99,03
2008,00;99,04
2007,00;99,03
2006,00;99,01
2005,00;98,98
2004,00;98,96
2003,00;98,95
2002,00;98,96
2001,00;98,95
2000,00;98,93
1999,00;98,91
1998,00;98,90
1997,00;98,90
1996,00;98,90
1995,00;98,90
1994,00;98,91
1993,00;98,92
1992,00;98,93
1991,00;98,95
1990,00;98,97
1989,00;98,98
1988,00;98,98
1987,00;99,00
1986,00;99,03
1985,00;99,04
1984,00;99,01
1983,00;98,95
1982,00;98,93
1981,00;98,95
1980,00;99,00
1979,00;99,05
1978,00;99,07
1977,00;99,03
1976,00;98,96
1975,00;98,89
1974,00;98,86
1973,00;98,86
1972,00;98,86
1971,00;98,86
1970,00;98,86
1969,00;98,87
1968,00;98,87
1967,00;98,87
1966,00;98,86
1965,00;98,84
1964,00;98,84
1963,00;98,87
1962,00;98,92
1961,00;98,96
1960,00;98,96
1959,00;98,92
1958,00;98,87
1957,00;98,82
1956,00;98,79
1955,00;98,80
1954,00;98,83
1953,00;98,86
1952,00;98,89
1951,00;98,91
1950,00;98,93
1949,00;98,94
1948,00;98,94
1947,00;98,95
1946,00;98,95
1945,00;98,93
1944,00;98,90
1943,00;98,87
1942,00;98,87
1941,00;98,88
1940,00;98,89
1939,00;98,90
1938,00;98,90
1937,00;98,89
1936,00;98,86
1935,00;98,86
1934,00;98,88
1933,00;98,92
1932,00;98,93
1931,00;98,92
1930,00;98,92
1929,00;98,92
1928,00;98,94
1927,00;98,96
1926,00;98,97
1925,00;98,98
1924,00;98,96
1923,00;98,93
1922,00;98,92
1921,00;98,90
1920,00;98,89
1919,00;98,89
1918,00;98,92
1917,00;98,95
1916,00;98,97
1915,00;98,97
1914,00;98,97
1913,00;98,95
1912,00;98,92
1911,00;98,89
1910,00;98,86
1909,00;98,85
1908,00;98,85
1907,00;98,87
1906,00;98,89
1905,00;98,90
1904,00;98,89
1903,00;98,87
1902,00;98,88
1901,00;98,89
1900,00;98,91
1899,00;98,93
1898,00;98,93
1897,00;98,93
1896,00;98,92
1895,00;98,91
1894,00;98,91
1893,00;98,91
1892,00;98,91
1891,00;98,92
1890,00;98,93
1889,00;98,94
1888,00;98,93
1887,00;98,92
1886,00;98,93
1885,00;98,93
1884,00;98,94
1883,00;98,94
1882,00;98,94
1881,00;98,94
1880,00;98,93
1879,00;98,94
1878,00;98,94
1877,00;98,94
1876,00;98,93
1875,00;98,93
1874,00;98,93
1873,00;98,93
1872,00;98,93
1871,00;98,95
1870,00;98,97
1869,00;98,98
1868,00;98,98
1867,00;98,97
1866,00;98,95
1865,00;98,94
1864,00;98,92
1863,00;98,92
1862,00;98,94
1861,00;98,95
1860,00;98,95
1859,00;98,94
1858,00;98,93
1857,00;98,93
1856,00;98,91
1855,00;98,91
1854,00;98,91
1853,00;98,91
1852,00;98,90
1851,00;98,88
1850,00;98,88
1849,00;98,87
1848,00;98,85
1847,00;98,83
1846,00;98,83
1845,00;98,83
1844,00;98,84
1843,00;98,85
1842,00;98,85
1841,00;98,85
1840,00;98,85
1839,00;98,85
1838,00;98,86
1837,00;98,85
1836,00;98,83
1835,00;98,81
1834,00;98,79
1833,00;98,78
1832,00;98,77
1831,00;98,77
1830,00;98,78
1829,00;98,80
1828,00;98,80
1827,00;98,81
1826,00;98,81
1825,00;98,80
1824,00;98,79
1823,00;98,79
1822,00;98,80
1821,00;98,82
1820,00;98,83
1819,00;98,83
1818,00;98,82
1817,00;98,81
1816,00;98,80
1815,00;98,80
1814,00;98,80
1813,00;98,79
1812,00;98,78
1811,00;98,76
1810,00;98,76
1809,00;98,77
1808,00;98,78
1807,00;98,79
1806,00;98,79
1805,00;98,79
1804,00;98,77
1803,00;98,75
1802,00;98,74
1801,00;98,74
1800,00;98,74
1799,00;98,73
1798,00;98,72
1797,00;98,70
1796,00;98,68
1795,00;98,67
1794,00;98,67
1793,00;98,68
1792,00;98,69
1791,00;98,71
1790,00;98,72
1789,00;98,71
1788,00;98,71
1787,00;98,70
1786,00;98,70
1785,00;98,69
1784,00;98,67
1783,00;98,65
1782,00;98,64
1781,00;98,63
1780,00;98,62
1779,00;98,61
1778,00;98,61
1777,00;98,60
1776,00;98,59
1775,00;98,58
1774,00;98,59
1773,00;98,60
1772,00;98,60
1771,00;98,61
1770,00;98,63
1769,00;98,63
1768,00;98,63
1767,00;98,62
1766,00;98,62
1765,00;98,61
1764,00;98,59
1763,00;98,57
1762,00;98,58
1761,00;98,58
1760,00;98,58
1759,00;98,58
1758,00;98,58
1757,00;98,58
1756,00;98,57
1755,00;98,55
1754,00;98,54
1753,00;98,53
1752,00;98,53
1751,00;98,53
1750,00;98,54
1749,00;98,54
1748,00;98,52
1747,00;98,49
1746,00;98,47
1745,00;98,46
1744,00;98,46
1743,00;98,46
1742,00;98,47
1741,00;98,46
1740,00;98,45
1739,00;98,44
1738,00;98,43
1737,00;98,42
1736,00;98,39
1735,00;98,36
1734,00;98,35
1733,00;98,34
1732,00;98,31
1731,00;98,29
1730,00;98,26
1729,00;98,23
1728,00;98,21
1727,00;98,19
1726,00;98,17
1725,00;98,15
1724,00;98,13
1723,00;98,10
1722,00;98,09
1721,00;98,07
1720,00;98,04
1719,00;98,01
1718,00;98,01
1717,00;98,01
1716,00;98,00
1715,00;97,97
1714,00;97,95
1713,00;97,93
1712,00;97,90
1711,00;97,87
1710,00;97,84
1709,00;97,82
1708,00;97,80
1707,00;97,78
1706,00;97,77
1705,00;97,75
1704,00;97,74
1703,00;97,72
1702,00;97,70
1701,00;97,67
1700,00;97,61
1699,00;97,57
1698,00;97,55
1697,00;97,54
1696,00;97,52
1695,00;97,50
1694,00;97,48
1693,00;97,44
1692,00;97,41
1691,00;97,37
1690,00;97,35
1689,00;97,33
1688,00;97,29
1687,00;97,24
1686,00;97,20
1685,00;97,14
1684,00;97,07
1683,00;97,02
1682,00;97,00
1681,00;96,97
1680,00;96,94
1679,00;96,92
1678,00;96,90
1677,00;96,89
1676,00;96,86
1675,00;96,81
1674,00;96,76
1673,00;96,71
1672,00;96,67
1671,00;96,64
1670,00;96,62
1669,00;96,58
1668,00;96,54
1667,00;96,51
1666,00;96,49
1665,00;96,47
1664,00;96,44
1663,00;96,40
1662,00;96,37
1661,00;96,35
1660,00;96,33
1659,00;96,32
1658,00;96,32
1657,00;96,32
1656,00;96,31
1655,00;96,29
1654,00;96,30
1653,00;96,30
1652,00;96,28
1651,00;96,27
1650,00;96,27
1649,00;96,26
1648,00;96,26
1647,00;96,26
1646,00;96,28
1645,00;96,29
1644,00;96,28
1643,00;96,28
1642,00;96,29
1641,00;96,31
1640,00;96,33
1639,00;96,34
1638,00;96,36
1637,00;96,37
1636,00;96,39
1635,00;96,41
1634,00;96,44
1633,00;96,45
1632,00;96,46
1631,00;96,48
1630,00;96,50
1629,00;96,53
1628,00;96,54
1627,00;96,55
1626,00;96,57
1625,00;96,59
1624,00;96,61
1623,00;96,63
1622,00;96,65
1621,00;96,65
1620,00;96,64
1619,00;96,63
1618,00;96,63
1617,00;96,64
1616,00;96,67
1615,00;96,70
1614,00;96,72
1613,00;96,72
1612,00;96,71
1611,00;96,70
1610,00;96,70
1609,00;96,71
1608,00;96,72
1607,00;96,72
1606,00;96,73
1605,00;96,74
1604,00;96,73
1603,00;96,73
1602,00;96,74
1601,00;96,74
1600,00;96,74
1599,00;96,74
1598,00;96,74
1597,00;96,72
1596,00;96,71
1595,00;96,70
1594,00;96,70
1593,00;96,71
1592,00;96,70
1591,00;96,70
1590,00;96,69
1589,00;96,67
1588,00;96,64
1587,00;96,62
1586,00;96,61
1585,00;96,60
1584,00;96,59
1583,00;96,58
1582,00;96,58
1581,00;96,57
1580,00;96,56
1579,00;96,55
1578,00;96,54
1577,00;96,52
1576,00;96,48
1575,00;96,47
1574,00;96,47
1573,00;96,47
1572,00;96,46
1571,00;96,45
1570,00;96,43
1569,00;96,40
1568,00;96,37
1567,00;96,34
1566,00;96,33
1565,00;96,31
1564,00;96,29
1563,00;96,27
1562,00;96,26
1561,00;96,25
1560,00;96,20
1559,00;96,15
1558,00;96,14
1557,00;96,13
1556,00;96,11
1555,00;96,09
1554,00;96,08
1553,00;96,05
1552,00;96,01
1551,00;95,97
1550,00;95,94
1549,00;95,91
1548,00;95,88
1547,00;95,86
1546,00;95,83
1545,00;95,80
1544,00;95,75
1543,00;95,72
1542,00;95,71
1541,00;95,68
1540,00;95,59
1539,00;95,53
1538,00;95,51
1537,00;95,49
1536,00;95,46
1535,00;95,42
1534,00;95,38
1533,00;95,32
1532,00;95,25
1531,00;95,21
1530,00;95,19
1529,00;95,17
1528,00;95,13
1527,00;95,08
1526,00;95,05
1525,00;94,99
1524,00;94,90
1523,00;94,83
1522,00;94,77
1521,00;94,70
1520,00;94,63
1519,00;94,59
1518,00;94,55
1517,00;94,47
1516,00;94,36
1515,00;94,27
1514,00;94,21
1513,00;94,13
1512,00;94,03
1511,00;93,94
1510,00;93,88
1509,00;93,80
1508,00;93,65
1507,00;93,43
1506,00;93,26
1505,00;93,15
1504,00;93,06
1503,00;92,99
1502,00;92,91
1501,00;92,81
1500,00;92,66
1499,00;92,51
1498,00;92,35
1497,00;92,12
1496,00;91,84
1495,00;91,60
1494,00;91,41
1493,00;91,23
1492,00;90,99
1491,00;90,70
1490,00;90,34
1489,00;89,92
1488,00;89,48
1487,00;89,10
1486,00;88,73
1485,00;88,35
1484,00;87,97
1483,00;87,58
1482,00;87,13
1481,00;86,62
1480,00;86,12
1479,00;85,70
1478,00;85,29
1477,00;84,84
1476,00;84,36
1475,00;83,91
1474,00;83,44
1473,00;82,80
1472,00;82,08
1471,00;81,53
1470,00;81,17
1469,00;80,87
1468,00;80,58
1467,00;80,28
1466,00;79,93
1465,00;79,50
1464,00;79,08
1463,00;78,78
1462,00;78,59
1461,00;78,43
1460,00;78,28
1459,00;78,12
1458,00;77,87
1457,00;77,52
1456,00;77,27
1455,00;77,22
1454,00;77,24
1453,00;77,26
1452,00;77,28
1451,00;77,33
1450,00;77,38
1449,00;77,40
1448,00;77,38
1447,00;77,34
1446,00;77,31
1445,00;77,25
1444,00;77,17
1443,00;77,07
1442,00;76,95
1441,00;76,82
1440,00;76,71
1439,00;76,61
1438,00;76,48
1437,00;76,24
1436,00;75,94
1435,00;75,75
1434,00;75,65
1433,00;75,56
1432,00;75,44
1431,00;75,31
1430,00;75,16
1429,00;75,00
1428,00;74,87
1427,00;74,79
1426,00;74,73
1425,00;74,62
1424,00;74,49
1423,00;74,39
1422,00;74,34
1421,00;74,31
1420,00;74,24
1419,00;74,13
1418,00;74,02
1417,00;73,95
1416,00;73,91
1415,00;73,93
1414,00;73,95
1413,00;73,97
1412,00;73,98
1411,00;74,01
1410,00;74,05
1409,00;74,10
1408,00;74,16
1407,00;74,24
1406,00;74,33
1405,00;74,42
1404,00;74,52
1403,00;74,66
1402,00;74,83
1401,00;74,99
1400,00;75,15
1399,00;75,32
1398,00;75,50
1397,00;75,66
1396,00;75,83
1395,00;76,03
1394,00;76,23
1393,00;76,42
1392,00;76,61
1391,00;76,80
1390,00;76,98
1389,00;77,14
1388,00;77,28
1387,00;77,41
1386,00;77,55
1385,00;77,68
1384,00;77,82
1383,00;77,94
1382,00;78,05
1381,00;78,14
1380,00;78,22
1379,00;78,29
1378,00;78,35
1377,00;78,39
1376,00;78,41
1375,00;78,42
1374,00;78,42
1373,00;78,41
1372,00;78,41
1371,00;78,43
1370,00;78,45
1369,00;78,45
1368,00;78,46
1367,00;78,48
1366,00;78,52
1365,00;78,55
1364,00;78,56
1363,00;78,56
1362,00;78,56
1361,00;78,56
1360,00;78,56
1359,00;78,56
1358,00;78,55
1357,00;78,52
1356,00;78,49
1355,00;78,46
1354,00;78,42
1353,00;78,37
1352,00;78,31
1351,00;78,25
1350,00;78,19
1349,00;78,12
1348,00;78,06
1347,00;78,00
1346,00;77,93
1345,00;77,86
1344,00;77,80
1343,00;77,75
1342,00;77,70
1341,00;77,63
1340,00;77,53
1339,00;77,42
1338,00;77,32
1337,00;77,24
1336,00;77,18
1335,00;77,14
1334,00;77,10
1333,00;77,06
1332,00;77,02
1331,00;76,98
1330,00;76,94
1329,00;76,92
1328,00;76,91
1327,00;76,92
1326,00;76,93
1325,00;76,95
1324,00;76,97
1323,00;77,00
1322,00;77,04
1321,00;77,08
1320,00;77,14
1319,00;77,22
1318,00;77,33
1317,00;77,44
1316,00;77,56
1315,00;77,69
1314,00;77,84
1313,00;77,99
1312,00;78,15
1311,00;78,32
1310,00;78,47
1309,00;78,62
1308,00;78,75
1307,00;78,89
1306,00;79,01
1305,00;79,12
1304,00;79,22
1303,00;79,31
1302,00;79,39
1301,00;79,45
1300,00;79,49
1299,00;79,54
1298,00;79,59
1297,00;79,64
1296,00;79,70
1295,00;79,76
1294,00;79,81
1293,00;79,86
1292,00;79,90
1291,00;79,95
1290,00;80,00
1289,00;80,04
1288,00;80,08
1287,00;80,13
1286,00;80,19
1285,00;80,25
1284,00;80,32
1283,00;80,39
1282,00;80,47
1281,00;80,54
1280,00;80,61
1279,00;80,69
1278,00;80,76
1277,00;80,83
1276,00;80,91
1275,00;81,00
1274,00;81,10
1273,00;81,19
1272,00;81,27
1271,00;81,33
1270,00;81,39
1269,00;81,45
1268,00;81,50
1267,00;81,56
1266,00;81,60
1265,00;81,64
1264,00;81,68
1263,00;81,72
1262,00;81,75
1261,00;81,76
1260,00;81,76
1259,00;81,74
1258,00;81,73
1257,00;81,70
1256,00;81,66
1255,00;81,61
1254,00;81,55
1253,00;81,47
1252,00;81,38
1251,00;81,27
1250,00;81,15
1249,00;81,02
1248,00;80,89
1247,00;80,77
1246,00;80,65
1245,00;80,52
1244,00;80,39
1243,00;80,26
1242,00;80,13
1241,00;80,03
1240,00;79,93
1239,00;79,85
1238,00;79,77
1237,00;79,70
1236,00;79,65
1235,00;79,60
1234,00;79,57
1233,00;79,54
1232,00;79,51
1231,00;79,49
1230,00;79,48
1229,00;79,47
1228,00;79,46
1227,00;79,45
1226,00;79,43
1225,00;79,41
1224,00;79,38
1223,00;79,36
1222,00;79,33
1221,00;79,31
1220,00;79,29
1219,00;79,27
1218,00;79,23
1217,00;79,17
1216,00;79,12
1215,00;79,07
1214,00;79,04
1213,00;79,01
1212,00;78,98
1211,00;78,97
1210,00;78,97
1209,00;78,98
1208,00;78,99
1207,00;79,03
1206,00;79,09
1205,00;79,17
1204,00;79,27
1203,00;79,39
1202,00;79,53
1201,00;79,69
1200,00;79,87
1199,00;80,07
1198,00;80,30
1197,00;80,55
1196,00;80,83
1195,00;81,15
1194,00;81,51
1193,00;81,89
1192,00;82,29
1191,00;82,71
1190,00;83,12
1189,00;83,53
1188,00;83,94
1187,00;84,36
1186,00;84,80
1185,00;85,23
1184,00;85,66
1183,00;86,07
1182,00;86,46
1181,00;86,83
1180,00;87,19
1179,00;87,54
1178,00;87,87
1177,00;88,16
1176,00;88,43
1175,00;88,68
1174,00;88,92
1173,00;89,14
1172,00;89,36
1171,00;89,58
1170,00;89,79
1169,00;89,98
1168,00;90,15
1167,00;90,30
1166,00;90,42
1165,00;90,54
1164,00;90,66
1163,00;90,76
1162,00;90,85
1161,00;90,93
1160,00;91,01
1159,00;91,07
1158,00;91,12
1157,00;91,16
1156,00;91,19
1155,00;91,23
1154,00;91,24
1153,00;91,25
1152,00;91,24
1151,00;91,24
1150,00;91,22
1149,00;91,19
1148,00;91,14
1147,00;91,08
1146,00;90,99
1145,00;90,87
1144,00;90,73
1143,00;90,57
1142,00;90,36
1141,00;90,11
1140,00;89,81
1139,00;89,46
1138,00;89,05
1137,00;88,57
1136,00;88,00
1135,00;87,35
1134,00;86,60
1133,00;85,77
1132,00;84,83
1131,00;83,80
1130,00;82,67
1129,00;81,44
1128,00;80,12
1127,00;78,73
1126,00;77,26
1125,00;75,73
1124,00;74,15
1123,00;72,54
1122,00;70,93
1121,00;69,33
1120,00;67,77
1119,00;66,26
1118,00;64,82
1117,00;63,44
1116,00;62,13
1115,00;60,94
1114,00;59,91
1113,00;59,03
1112,00;58,31
1111,00;57,76
1110,00;57,39
1109,00;57,19
1108,00;57,13
1107,00;57,24
1106,00;57,49
1105,00;57,83
1104,00;58,21
1103,00;58,66
1102,00;59,17
1101,00;59,73
1100,00;60,30
1099,00;60,87
1098,00;61,44
1097,00;61,98
1096,00;62,48
1095,00;62,97
1094,00;63,45
1093,00;63,88
1092,00;64,28
1091,00;64,65
1090,00;64,99
1089,00;65,27
1088,00;65,51
1087,00;65,72
1086,00;65,91
1085,00;66,03
1084,00;66,10
1083,00;66,13
1082,00;66,13
1081,00;66,06
1080,00;65,91
1079,00;65,70
1078,00;65,45
1077,00;65,15
1076,00;64,79
1075,00;64,39
1074,00;63,95
1073,00;63,42
1072,00;62,82
1071,00;62,16
1070,00;61,46
1069,00;60,71
1068,00;59,88
1067,00;59,01
1066,00;58,11
1065,00;57,15
1064,00;56,13
1063,00;55,08
1062,00;54,00
1061,00;52,87
1060,00;51,70
1059,00;50,51
1058,00;49,34
1057,00;48,14
1056,00;46,90
1055,00;45,66
1054,00;44,42
1053,00;43,15
1052,00;41,84
1051,00;40,55
1050,00;39,29
1049,00;38,02
1048,00;36,73
1047,00;35,47
1046,00;34,29
1045,00;33,13
1044,00;31,99
1043,00;30,91
1042,00;29,93
1041,00;29,01
1040,00;28,12
1039,00;27,30
1038,00;26,59
1037,00;25,94
1036,00;25,35
1035,00;24,84
1034,00;24,42
1033,00;24,07
1032,00;23,78
1031,00;23,60
1030,00;23,56
1029,00;23,63
1028,00;23,80
1027,00;24,11
1026,00;24,60
1025,00;25,22
1024,00;25,97
1023,00;26,90
1022,00;28,05
1021,00;29,39
1020,00;30,91
1019,00;32,64
1018,00;34,57
1017,00;36,63
1016,00;38,77
1015,00;40,98
1014,00;43,20
1013,00;45,34
1012,00;47,33
1011,00;49,13
1010,00;50,69
1009,00;51,94
1008,00;52,83
1007,00;53,41
1006,00;53,69
1005,00;53,70
1004,00;53,45
1003,00;53,00
1002,00;52,40
1001,00;51,70
1000,00;50,95
999,00;50,23
998,00;49,57
997,00;49,00
996,00;48,52
995,00;48,18
994,00;48,00
993,00;47,96
992,00;48,05
991,00;48,32
990,00;48,75
989,00;49,32
988,00;49,97
987,00;50,70
986,00;51,46
985,00;52,21
984,00;52,91
983,00;53,56
982,00;54,15
981,00;54,66
980,00;55,08
979,00;55,45
978,00;55,80
977,00;56,12
976,00;56,46
975,00;56,88
974,00;57,41
973,00;58,07
972,00;58,87
971,00;59,82
970,00;60,93
969,00;62,20
968,00;63,60
967,00;65,12
966,00;66,73
965,00;68,36
964,00;69,99
963,00;71,60
962,00;73,14
961,00;74,58
960,00;75,88
959,00;77,05
958,00;78,09
957,00;79,03
956,00;79,85
955,00;80,58
954,00;81,19
953,00;81,70
952,00;82,13
951,00;82,49
950,00;82,78
949,00;82,98
948,00;83,10
947,00;83,14
946,00;83,11
945,00;82,97
944,00;82,71
943,00;82,30
942,00;81,74
941,00;81,02
940,00;80,15
939,00;79,13
938,00;77,96
937,00;76,67
936,00;75,26
935,00;73,79
934,00;72,30
933,00;70,80
932,00;69,31
931,00;67,87
930,00;66,52
929,00;65,28
928,00;64,19
927,00;63,30
926,00;62,62
925,00;62,12
924,00;61,78
923,00;61,58
922,00;61,51
921,00;61,57
920,00;61,74
919,00;62,02
918,00;62,39
917,00;62,81
916,00;63,24
915,00;63,72
914,00;64,26
913,00;64,86
912,00;65,52
911,00;66,25
910,00;67,03
909,00;67,87
908,00;68,76
907,00;69,75
906,00;70,82
905,00;71,93
904,00;73,03
903,00;74,13
902,00;75,21
901,00;76,27
900,00;77,31
899,00;78,33
898,00;79,30
897,00;80,19
896,00;80,99
895,00;81,70
894,00;82,32
893,00;82,85
892,00;83,26
891,00;83,58
890,00;83,81
889,00;83,95
888,00;84,02
887,00;84,02
886,00;83,96
885,00;83,82
884,00;83,56
883,00;83,19
882,00;82,71
881,00;82,12
880,00;81,42
879,00;80,63
878,00;79,75
877,00;78,78
876,00;77,74
875,00;76,65
874,00;75,55
873,00;74,43
872,00;73,34
871,00;72,31
870,00;71,37
869,00;70,52
868,00;69,76
867,00;69,10
866,00;68,56
865,00;68,12
864,00;67,76
863,00;67,49
862,00;67,28
861,00;67,09
860,00;66,89
859,00;66,66
858,00;66,39
857,00;66,09
856,00;65,76
855,00;65,45
854,00;65,17
853,00;64,93
852,00;64,75
851,00;64,69
850,00;64,73
849,00;64,84
848,00;65,02
847,00;65,32
846,00;65,74
845,00;66,27
844,00;66,89
843,00;67,64
842,00;68,50
841,00;69,44
840,00;70,39
839,00;71,35
838,00;72,32
837,00;73,24
836,00;74,09
835,00;74,82
834,00;75,44
833,00;75,93
832,00;76,31
831,00;76,58
830,00;76,75
829,00;76,83
828,00;76,80
827,00;76,67
826,00;76,49
825,00;76,28
824,00;76,08
823,00;75,91
822,00;75,76
821,00;75,62
820,00;75,52
819,00;75,49
818,00;75,55
817,00;75,64
816,00;75,75
815,00;75,86
814,00;75,98
813,00;76,11
812,00;76,25
811,00;76,41
810,00;76,58
809,00;76,72
808,00;76,83
807,00;76,92
806,00;76,97
805,00;76,96
804,00;76,90
803,00;76,81
802,00;76,73
801,00;76,65
800,00;76,56
799,00;76,45
798,00;76,31
797,00;76,14
796,00;75,97
795,00;75,80
794,00;75,65
793,00;75,51
792,00;75,35
791,00;75,19
790,00;75,03
789,00;74,86
788,00;74,66
787,00;74,47
786,00;74,28
785,00;74,11
784,00;73,95
783,00;73,81
782,00;73,67
781,00;73,51
780,00;73,33
779,00;73,17
778,00;73,04
777,00;72,91
776,00;72,77
775,00;72,63
774,00;72,51
773,00;72,37
772,00;72,22
771,00;72,05
770,00;71,90
769,00;71,74
768,00;71,57
767,00;71,39
766,00;71,23
765,00;71,06
764,00;70,88
763,00;70,70
762,00;70,53
761,00;70,34
760,00;70,13
759,00;69,93
758,00;69,75
757,00;69,58
756,00;69,40
755,00;69,23
754,00;69,07
753,00;68,90
752,00;68,71
751,00;68,52
750,00;68,33
749,00;68,13
748,00;67,91
747,00;67,70
746,00;67,51
745,00;67,32
744,00;67,12
743,00;66,92
742,00;66,71
741,00;66,50
740,00;66,27
739,00;66,06
738,00;65,89
737,00;65,72
736,00;65,53
735,00;65,32
734,00;65,14
733,00;64,96
732,00;64,79
731,00;64,62
730,00;64,45
729,00;64,26
728,00;64,03
727,00;63,79
726,00;63,57
725,00;63,35
724,00;63,14
723,00;62,94
722,00;62,74
721,00;62,53
720,00;62,31
719,00;62,12
718,00;61,96
717,00;61,78
716,00;61,57
715,00;61,36
714,00;61,17
713,00;60,98
712,00;60,77
711,00;60,56
710,00;60,37
709,00;60,16
708,00;59,93
707,00;59,71
706,00;59,52
705,00;59,30
704,00;59,05
703,00;58,80
702,00;58,58
701,00;58,39
700,00;58,20
699,00;58,01
698,00;57,81
697,00;57,52
696,00;57,18
695,00;56,83
694,00;56,55
693,00;56,28
692,00;55,97
691,00;55,64
690,00;55,30
689,00;54,91
688,00;54,46
687,00;54,01
686,00;53,59
685,00;53,16
684,00;52,70
683,00;52,25
682,00;51,82
681,00;51,33
680,00;50,79
679,00;50,30
678,00;49,89
677,00;49,50
676,00;49,08
675,00;48,73
674,00;48,49
673,00;48,31
672,00;48,17
671,00;48,07
670,00;48,00
669,00;47,82
668,00;47,53
667,00;47,42
666,00;47,50
665,00;47,55
664,00;47,53
663,00;47,51
662,00;47,57
661,00;47,62
660,00;47,61
659,00;47,57
658,00;47,58
657,00;47,56
656,00;47,47
655,00;47,38
654,00;47,30
653,00;47,19
652,00;47,02
651,00;46,92
650,00;46,93
649,00;46,92
648,00;46,82
647,00;46,76
646,00;46,85
645,00;46,96
644,00;46,98
643,00;46,99
642,00;47,02
641,00;47,00
640,00;46,88
639,00;46,79
638,00;46,85
637,00;46,89
636,00;46,82
635,00;46,78
634,00;46,88
633,00;46,98
632,00;46,92
631,00;46,85
630,00;46,88
629,00;46,90
628,00;46,81
627,00;46,73
626,00;46,78
625,00;46,79
624,00;46,64
623,00;46,49
622,00;46,49
621,00;46,48
620,00;46,37
619,00;46,36
618,00;46,57
617,00;46,69
616,00;46,46
615,00;46,13
614,00;45,97
613,00;45,87
612,00;45,73
611,00;45,76
610,00;45,93
609,00;45,85
608,00;45,33
607,00;44,80
606,00;44,68
605,00;44,82
604,00;44,98
603,00;45,18
602,00;45,42
601,00;45,39
600,00;45,09
