Created as New Dataset;Sample 004 By Administrator Date maandag, maart 02 2026
cm-1;%T
4000,00;99,30
3999,00;99,29
3998,00;99,28
3997,00;99,27
3996,00;99,28
3995,00;99,30
3994,00;99,32
3993,00;99,32
3992,00;99,33
3991,00;99,33
3990,00;99,34
3989,00;99,35
3988,00;99,34
3987,00;99,33
3986,00;99,31
3985,00;99,29
3984,00;99,29
3983,00;99,28
3982,00;99,27
3981,00;99,25
3980,00;99,23
3979,00;99,22
3978,00;99,22
3977,00;99,22
3976,00;99,24
3975,00;99,26
3974,00;99,28
3973,00;99,30
3972,00;99,32
3971,00;99,34
3970,00;99,34
3969,00;99,33
3968,00;99,31
3967,00;99,29
3966,00;99,27
3965,00;99,26
3964,00;99,26
3963,00;99,26
3962,00;99,26
3961,00;99,26
3960,00;99,26
3959,00;99,25
3958,00;99,25
3957,00;99,25
3956,00;99,26
3955,00;99,26
3954,00;99,26
3953,00;99,26
3952,00;99,25
3951,00;99,25
3950,00;99,26
3949,00;99,28
3948,00;99,28
3947,00;99,28
3946,00;99,26
3945,00;99,26
3944,00;99,27
3943,00;99,29
3942,00;99,31
3941,00;99,31
3940,00;99,29
3939,00;99,28
3938,00;99,27
3937,00;99,28
3936,00;99,28
3935,00;99,28
3934,00;99,27
3933,00;99,25
3932,00;99,24
3931,00;99,24
3930,00;99,25
3929,00;99,25
3928,00;99,24
3927,00;99,22
3926,00;99,20
3925,00;99,20
3924,00;99,21
3923,00;99,22
3922,00;99,23
3921,00;99,23
3920,00;99,21
3919,00;99,21
3918,00;99,21
3917,00;99,22
3916,00;99,24
3915,00;99,26
3914,00;99,27
3913,00;99,27
3912,00;99,26
3911,00;99,25
3910,00;99,24
3909,00;99,23
3908,00;99,22
3907,00;99,20
3906,00;99,19
3905,00;99,19
3904,00;99,20
3903,00;99,21
3902,00;99,21
3901,00;99,21
3900,00;99,21
3899,00;99,22
3898,00;99,23
3897,00;99,23
3896,00;99,22
3895,00;99,21
3894,00;99,20
3893,00;99,20
3892,00;99,21
3891,00;99,22
3890,00;99,22
3889,00;99,20
3888,00;99,19
3887,00;99,20
3886,00;99,22
3885,00;99,23
3884,00;99,23
3883,00;99,22
3882,00;99,22
3881,00;99,23
3880,00;99,25
3879,00;99,24
3878,00;99,21
3877,00;99,19
3876,00;99,17
3875,00;99,18
3874,00;99,19
3873,00;99,19
3872,00;99,18
3871,00;99,17
3870,00;99,17
3869,00;99,16
3868,00;99,15
3867,00;99,15
3866,00;99,16
3865,00;99,18
3864,00;99,22
3863,00;99,24
3862,00;99,25
3861,00;99,24
3860,00;99,23
3859,00;99,22
3858,00;99,20
3857,00;99,19
3856,00;99,18
3855,00;99,18
3854,00;99,19
3853,00;99,20
3852,00;99,20
3851,00;99,20
3850,00;99,21
3849,00;99,22
3848,00;99,23
3847,00;99,23
3846,00;99,21
3845,00;99,19
3844,00;99,18
3843,00;99,18
3842,00;99,18
3841,00;99,18
3840,00;99,17
3839,00;99,15
3838,00;99,15
3837,00;99,15
3836,00;99,15
3835,00;99,16
3834,00;99,17
3833,00;99,18
3832,00;99,18
3831,00;99,18
3830,00;99,17
3829,00;99,18
3828,00;99,19
3827,00;99,20
3826,00;99,20
3825,00;99,18
3824,00;99,15
3823,00;99,12
3822,00;99,09
3821,00;99,08
3820,00;99,09
3819,00;99,10
3818,00;99,11
3817,00;99,14
3816,00;99,16
3815,00;99,18
3814,00;99,19
3813,00;99,20
3812,00;99,19
3811,00;99,17
3810,00;99,15
3809,00;99,12
3808,00;99,10
3807,00;99,09
3806,00;99,06
3805,00;99,04
3804,00;99,02
3803,00;99,01
3802,00;99,03
3801,00;99,06
3800,00;99,07
3799,00;99,07
3798,00;99,08
3797,00;99,09
3796,00;99,09
3795,00;99,09
3794,00;99,09
3793,00;99,09
3792,00;99,10
3791,00;99,11
3790,00;99,10
3789,00;99,09
3788,00;99,08
3787,00;99,08
3786,00;99,08
3785,00;99,08
3784,00;99,07
3783,00;99,06
3782,00;99,05
3781,00;99,05
3780,00;99,05
3779,00;99,03
3778,00;99,00
3777,00;98,97
3776,00;98,95
3775,00;98,95
3774,00;98,95
3773,00;98,94
3772,00;98,92
3771,00;98,89
3770,00;98,89
3769,00;98,91
3768,00;98,94
3767,00;98,98
3766,00;99,00
3765,00;98,99
3764,00;98,96
3763,00;98,92
3762,00;98,89
3761,00;98,87
3760,00;98,87
3759,00;98,89
3758,00;98,90
3757,00;98,90
3756,00;98,87
3755,00;98,84
3754,00;98,81
3753,00;98,79
3752,00;98,78
3751,00;98,77
3750,00;98,75
3749,00;98,70
3748,00;98,66
3747,00;98,64
3746,00;98,66
3745,00;98,70
3744,00;98,72
3743,00;98,70
3742,00;98,67
3741,00;98,65
3740,00;98,64
3739,00;98,61
3738,00;98,57
3737,00;98,53
3736,00;98,50
3735,00;98,50
3734,00;98,50
3733,00;98,50
3732,00;98,50
3731,00;98,50
3730,00;98,50
3729,00;98,50
3728,00;98,50
3727,00;98,50
3726,00;98,49
3725,00;98,49
3724,00;98,49
3723,00;98,48
3722,00;98,47
3721,00;98,43
3720,00;98,39
3719,00;98,36
3718,00;98,33
3717,00;98,31
3716,00;98,27
3715,00;98,22
3714,00;98,14
3713,00;98,05
3712,00;97,98
3711,00;97,94
3710,00;97,93
3709,00;97,91
3708,00;97,88
3707,00;97,85
3706,00;97,82
3705,00;97,79
3704,00;97,76
3703,00;97,73
3702,00;97,68
3701,00;97,61
3700,00;97,54
3699,00;97,47
3698,00;97,42
3697,00;97,37
3696,00;97,32
3695,00;97,26
3694,00;97,19
3693,00;97,11
3692,00;97,00
3691,00;96,89
3690,00;96,77
3689,00;96,65
3688,00;96,54
3687,00;96,45
3686,00;96,37
3685,00;96,30
3684,00;96,22
3683,00;96,13
3682,00;96,03
3681,00;95,92
3680,00;95,81
3679,00;95,70
3678,00;95,57
3677,00;95,42
3676,00;95,21
3675,00;95,00
3674,00;94,82
3673,00;94,70
3672,00;94,58
3671,00;94,44
3670,00;94,25
3669,00;94,07
3668,00;93,92
3667,00;93,80
3666,00;93,67
3665,00;93,52
3664,00;93,35
3663,00;93,17
3662,00;93,00
3661,00;92,84
3660,00;92,69
3659,00;92,53
3658,00;92,34
3657,00;92,12
3656,00;91,89
3655,00;91,70
3654,00;91,55
3653,00;91,41
3652,00;91,26
3651,00;91,06
3650,00;90,81
3649,00;90,53
3648,00;90,25
3647,00;90,00
3646,00;89,80
3645,00;89,64
3644,00;89,49
3643,00;89,35
3642,00;89,19
3641,00;89,01
3640,00;88,82
3639,00;88,63
3638,00;88,45
3637,00;88,27
3636,00;88,10
3635,00;87,92
3634,00;87,74
3633,00;87,56
3632,00;87,40
3631,00;87,24
3630,00;87,02
3629,00;86,73
3628,00;86,46
3627,00;86,25
3626,00;86,12
3625,00;86,02
3624,00;85,91
3623,00;85,80
3622,00;85,66
3621,00;85,49
3620,00;85,29
3619,00;85,08
3618,00;84,90
3617,00;84,74
3616,00;84,61
3615,00;84,45
3614,00;84,28
3613,00;84,08
3612,00;83,91
3611,00;83,75
3610,00;83,59
3609,00;83,42
3608,00;83,23
3607,00;83,05
3606,00;82,90
3605,00;82,77
3604,00;82,64
3603,00;82,50
3602,00;82,35
3601,00;82,18
3600,00;82,01
3599,00;81,86
3598,00;81,72
3597,00;81,57
3596,00;81,40
3595,00;81,20
3594,00;80,99
3593,00;80,80
3592,00;80,64
3591,00;80,50
3590,00;80,36
3589,00;80,18
3588,00;79,94
3587,00;79,71
3586,00;79,52
3585,00;79,37
3584,00;79,25
3583,00;79,12
3582,00;78,98
3581,00;78,83
3580,00;78,68
3579,00;78,53
3578,00;78,38
3577,00;78,23
3576,00;78,05
3575,00;77,86
3574,00;77,67
3573,00;77,49
3572,00;77,35
3571,00;77,24
3570,00;77,13
3569,00;77,00
3568,00;76,81
3567,00;76,56
3566,00;76,30
3565,00;76,08
3564,00;75,91
3563,00;75,75
3562,00;75,60
3561,00;75,44
3560,00;75,27
3559,00;75,10
3558,00;74,94
3557,00;74,78
3556,00;74,63
3555,00;74,46
3554,00;74,28
3553,00;74,09
3552,00;73,89
3551,00;73,70
3550,00;73,54
3549,00;73,38
3548,00;73,22
3547,00;73,03
3546,00;72,82
3545,00;72,60
3544,00;72,40
3543,00;72,23
3542,00;72,07
3541,00;71,93
3540,00;71,78
3539,00;71,62
3538,00;71,45
3537,00;71,26
3536,00;71,07
3535,00;70,89
3534,00;70,71
3533,00;70,55
3532,00;70,38
3531,00;70,21
3530,00;70,04
3529,00;69,87
3528,00;69,68
3527,00;69,49
3526,00;69,30
3525,00;69,12
3524,00;68,93
3523,00;68,75
3522,00;68,57
3521,00;68,39
3520,00;68,22
3519,00;68,05
3518,00;67,87
3517,00;67,69
3516,00;67,51
3515,00;67,34
3514,00;67,17
3513,00;67,00
3512,00;66,83
3511,00;66,65
3510,00;66,47
3509,00;66,29
3508,00;66,13
3507,00;65,99
3506,00;65,83
3505,00;65,65
3504,00;65,44
3503,00;65,21
3502,00;64,99
3501,00;64,81
3500,00;64,66
3499,00;64,52
3498,00;64,36
3497,00;64,20
3496,00;64,03
3495,00;63,86
3494,00;63,69
3493,00;63,53
3492,00;63,37
3491,00;63,21
3490,00;63,05
3489,00;62,88
3488,00;62,71
3487,00;62,54
3486,00;62,37
3485,00;62,21
3484,00;62,05
3483,00;61,88
3482,00;61,70
3481,00;61,50
3480,00;61,31
3479,00;61,13
3478,00;60,97
3477,00;60,82
3476,00;60,67
3475,00;60,52
3474,00;60,36
3473,00;60,20
3472,00;60,02
3471,00;59,84
3470,00;59,67
3469,00;59,50
3468,00;59,35
3467,00;59,20
3466,00;59,06
3465,00;58,92
3464,00;58,77
3463,00;58,62
3462,00;58,46
3461,00;58,29
3460,00;58,13
3459,00;57,97
3458,00;57,83
3457,00;57,69
3456,00;57,55
3455,00;57,41
3454,00;57,28
3453,00;57,14
3452,00;57,00
3451,00;56,87
3450,00;56,73
3449,00;56,57
3448,00;56,39
3447,00;56,20
3446,00;56,03
3445,00;55,89
3444,00;55,77
3443,00;55,65
3442,00;55,51
3441,00;55,36
3440,00;55,21
3439,00;55,06
3438,00;54,91
3437,00;54,77
3436,00;54,63
3435,00;54,51
3434,00;54,39
3433,00;54,26
3432,00;54,13
3431,00;53,99
3430,00;53,86
3429,00;53,74
3428,00;53,64
3427,00;53,54
3426,00;53,43
3425,00;53,32
3424,00;53,20
3423,00;53,07
3422,00;52,94
3421,00;52,81
3420,00;52,70
3419,00;52,59
3418,00;52,49
3417,00;52,40
3416,00;52,29
3415,00;52,18
3414,00;52,07
3413,00;51,96
3412,00;51,86
3411,00;51,77
3410,00;51,68
3409,00;51,59
3408,00;51,49
3407,00;51,40
3406,00;51,31
3405,00;51,21
3404,00;51,12
3403,00;51,02
3402,00;50,93
3401,00;50,84
3400,00;50,76
3399,00;50,69
3398,00;50,63
3397,00;50,57
3396,00;50,50
3395,00;50,44
3394,00;50,37
3393,00;50,31
3392,00;50,25
3391,00;50,21
3390,00;50,17
3389,00;50,13
3388,00;50,09
3387,00;50,04
3386,00;49,99
3385,00;49,94
3384,00;49,89
3383,00;49,85
3382,00;49,82
3381,00;49,78
3380,00;49,74
3379,00;49,70
3378,00;49,66
3377,00;49,63
3376,00;49,61
3375,00;49,60
3374,00;49,60
3373,00;49,59
3372,00;49,58
3371,00;49,56
3370,00;49,54
3369,00;49,52
3368,00;49,50
3367,00;49,49
3366,00;49,49
3365,00;49,49
3364,00;49,50
3363,00;49,51
3362,00;49,52
3361,00;49,53
3360,00;49,55
3359,00;49,57
3358,00;49,60
3357,00;49,61
3356,00;49,62
3355,00;49,63
3354,00;49,65
3353,00;49,67
3352,00;49,70
3351,00;49,72
3350,00;49,74
3349,00;49,76
3348,00;49,79
3347,00;49,81
3346,00;49,84
3345,00;49,87
3344,00;49,90
3343,00;49,94
3342,00;49,97
3341,00;50,01
3340,00;50,05
3339,00;50,09
3338,00;50,13
3337,00;50,18
3336,00;50,23
3335,00;50,29
3334,00;50,35
3333,00;50,41
3332,00;50,46
3331,00;50,50
3330,00;50,53
3329,00;50,56
3328,00;50,60
3327,00;50,66
3326,00;50,71
3325,00;50,77
3324,00;50,81
3323,00;50,85
3322,00;50,91
3321,00;50,97
3320,00;51,04
3319,00;51,11
3318,00;51,16
3317,00;51,22
3316,00;51,27
3315,00;51,32
3314,00;51,37
3313,00;51,41
3312,00;51,46
3311,00;51,49
3310,00;51,53
3309,00;51,56
3308,00;51,61
3307,00;51,67
3306,00;51,74
3305,00;51,80
3304,00;51,86
3303,00;51,91
3302,00;51,97
3301,00;52,02
3300,00;52,07
3299,00;52,12
3298,00;52,17
3297,00;52,23
3296,00;52,28
3295,00;52,32
3294,00;52,37
3293,00;52,41
3292,00;52,44
3291,00;52,48
3290,00;52,52
3289,00;52,57
3288,00;52,61
3287,00;52,67
3286,00;52,72
3285,00;52,78
3284,00;52,83
3283,00;52,88
3282,00;52,92
3281,00;52,97
3280,00;53,01
3279,00;53,05
3278,00;53,09
3277,00;53,13
3276,00;53,18
3275,00;53,22
3274,00;53,27
3273,00;53,32
3272,00;53,36
3271,00;53,40
3270,00;53,45
3269,00;53,49
3268,00;53,53
3267,00;53,58
3266,00;53,63
3265,00;53,68
3264,00;53,72
3263,00;53,77
3262,00;53,81
3261,00;53,86
3260,00;53,91
3259,00;53,96
3258,00;54,02
3257,00;54,06
3256,00;54,11
3255,00;54,15
3254,00;54,19
3253,00;54,25
3252,00;54,32
3251,00;54,40
3250,00;54,47
3249,00;54,54
3248,00;54,60
3247,00;54,65
3246,00;54,71
3245,00;54,78
3244,00;54,85
3243,00;54,92
3242,00;54,99
3241,00;55,06
3240,00;55,13
3239,00;55,20
3238,00;55,27
3237,00;55,34
3236,00;55,42
3235,00;55,50
3234,00;55,60
3233,00;55,69
3232,00;55,79
3231,00;55,89
3230,00;55,99
3229,00;56,08
3228,00;56,17
3227,00;56,26
3226,00;56,36
3225,00;56,47
3224,00;56,58
3223,00;56,70
3222,00;56,81
3221,00;56,93
3220,00;57,05
3219,00;57,16
3218,00;57,27
3217,00;57,38
3216,00;57,50
3215,00;57,63
3214,00;57,77
3213,00;57,91
3212,00;58,05
3211,00;58,20
3210,00;58,35
3209,00;58,49
3208,00;58,63
3207,00;58,76
3206,00;58,88
3205,00;59,02
3204,00;59,16
3203,00;59,32
3202,00;59,47
3201,00;59,64
3200,00;59,81
3199,00;59,98
3198,00;60,16
3197,00;60,34
3196,00;60,51
3195,00;60,67
3194,00;60,84
3193,00;61,01
3192,00;61,18
3191,00;61,35
3190,00;61,52
3189,00;61,70
3188,00;61,88
3187,00;62,07
3186,00;62,26
3185,00;62,44
3184,00;62,63
3183,00;62,82
3182,00;63,01
3181,00;63,21
3180,00;63,40
3179,00;63,59
3178,00;63,79
3177,00;63,98
3176,00;64,18
3175,00;64,38
3174,00;64,58
3173,00;64,78
3172,00;64,98
3171,00;65,18
3170,00;65,38
3169,00;65,58
3168,00;65,79
3167,00;65,99
3166,00;66,20
3165,00;66,41
3164,00;66,61
3163,00;66,81
3162,00;67,02
3161,00;67,22
3160,00;67,42
3159,00;67,62
3158,00;67,82
3157,00;68,03
3156,00;68,23
3155,00;68,44
3154,00;68,66
3153,00;68,88
3152,00;69,11
3151,00;69,32
3150,00;69,52
3149,00;69,72
3148,00;69,93
3147,00;70,13
3146,00;70,34
3145,00;70,54
3144,00;70,74
3143,00;70,94
3142,00;71,15
3141,00;71,38
3140,00;71,60
3139,00;71,83
3138,00;72,04
3137,00;72,24
3136,00;72,44
3135,00;72,63
3134,00;72,83
3133,00;73,04
3132,00;73,25
3131,00;73,45
3130,00;73,65
3129,00;73,84
3128,00;74,04
3127,00;74,25
3126,00;74,45
3125,00;74,65
3124,00;74,84
3123,00;75,03
3122,00;75,23
3121,00;75,42
3120,00;75,62
3119,00;75,80
3118,00;75,99
3117,00;76,18
3116,00;76,37
3115,00;76,57
3114,00;76,76
3113,00;76,95
3112,00;77,13
3111,00;77,32
3110,00;77,50
3109,00;77,69
3108,00;77,86
3107,00;78,04
3106,00;78,22
3105,00;78,41
3104,00;78,61
3103,00;78,80
3102,00;79,00
3101,00;79,18
3100,00;79,36
3099,00;79,53
3098,00;79,70
3097,00;79,87
3096,00;80,04
3095,00;80,21
3094,00;80,39
3093,00;80,57
3092,00;80,74
3091,00;80,91
3090,00;81,07
3089,00;81,23
3088,00;81,39
3087,00;81,55
3086,00;81,70
3085,00;81,84
3084,00;81,99
3083,00;82,15
3082,00;82,31
3081,00;82,47
3080,00;82,63
3079,00;82,78
3078,00;82,93
3077,00;83,08
3076,00;83,23
3075,00;83,38
3074,00;83,53
3073,00;83,68
3072,00;83,82
3071,00;83,97
3070,00;84,12
3069,00;84,27
3068,00;84,43
3067,00;84,58
3066,00;84,73
3065,00;84,86
3064,00;84,99
3063,00;85,11
3062,00;85,24
3061,00;85,37
3060,00;85,50
3059,00;85,63
3058,00;85,77
3057,00;85,91
3056,00;86,04
3055,00;86,18
3054,00;86,31
3053,00;86,44
3052,00;86,56
3051,00;86,68
3050,00;86,80
3049,00;86,92
3048,00;87,05
3047,00;87,17
3046,00;87,29
3045,00;87,40
3044,00;87,51
3043,00;87,62
3042,00;87,73
3041,00;87,84
3040,00;87,94
3039,00;88,05
3038,00;88,17
3037,00;88,29
3036,00;88,42
3035,00;88,55
3034,00;88,66
3033,00;88,77
3032,00;88,86
3031,00;88,95
3030,00;89,05
3029,00;89,15
3028,00;89,26
3027,00;89,36
3026,00;89,46
3025,00;89,57
3024,00;89,68
3023,00;89,79
3022,00;89,89
3021,00;89,98
3020,00;90,07
3019,00;90,15
3018,00;90,25
3017,00;90,34
3016,00;90,43
3015,00;90,51
3014,00;90,59
3013,00;90,68
3012,00;90,78
3011,00;90,87
3010,00;90,96
3009,00;91,06
3008,00;91,15
3007,00;91,24
3006,00;91,34
3005,00;91,42
3004,00;91,50
3003,00;91,57
3002,00;91,64
3001,00;91,71
3000,00;91,78
2999,00;91,86
2998,00;91,93
2997,00;92,01
2996,00;92,08
2995,00;92,15
2994,00;92,22
2993,00;92,28
2992,00;92,35
2991,00;92,42
2990,00;92,50
2989,00;92,57
2988,00;92,64
2987,00;92,71
2986,00;92,78
2985,00;92,84
2984,00;92,91
2983,00;92,98
2982,00;93,06
2981,00;93,14
2980,00;93,22
2979,00;93,29
2978,00;93,36
2977,00;93,42
2976,00;93,48
2975,00;93,55
2974,00;93,63
2973,00;93,72
2972,00;93,82
2971,00;93,90
2970,00;93,96
2969,00;94,00
2968,00;94,04
2967,00;94,09
2966,00;94,14
2965,00;94,20
2964,00;94,25
2963,00;94,29
2962,00;94,33
2961,00;94,38
2960,00;94,42
2959,00;94,47
2958,00;94,52
2957,00;94,58
2956,00;94,64
2955,00;94,69
2954,00;94,75
2953,00;94,81
2952,00;94,87
2951,00;94,92
2950,00;94,96
2949,00;95,00
2948,00;95,05
2947,00;95,10
2946,00;95,16
2945,00;95,21
2944,00;95,24
2943,00;95,26
2942,00;95,29
2941,00;95,33
2940,00;95,39
2939,00;95,45
2938,00;95,52
2937,00;95,57
2936,00;95,63
2935,00;95,67
2934,00;95,72
2933,00;95,76
2932,00;95,79
2931,00;95,82
2930,00;95,86
2929,00;95,91
2928,00;95,96
2927,00;96,02
2926,00;96,06
2925,00;96,09
2924,00;96,12
2923,00;96,16
2922,00;96,20
2921,00;96,23
2920,00;96,25
2919,00;96,28
2918,00;96,30
2917,00;96,34
2916,00;96,37
2915,00;96,40
2914,00;96,43
2913,00;96,46
2912,00;96,48
2911,00;96,50
2910,00;96,53
2909,00;96,55
2908,00;96,58
2907,00;96,60
2906,00;96,62
2905,00;96,65
2904,00;96,68
2903,00;96,71
2902,00;96,75
2901,00;96,78
2900,00;96,80
2899,00;96,83
2898,00;96,85
2897,00;96,88
2896,00;96,91
2895,00;96,93
2894,00;96,95
2893,00;96,97
2892,00;96,99
2891,00;97,00
2890,00;97,01
2889,00;97,03
2888,00;97,06
2887,00;97,09
2886,00;97,12
2885,00;97,14
2884,00;97,16
2883,00;97,18
2882,00;97,20
2881,00;97,23
2880,00;97,25
2879,00;97,28
2878,00;97,30
2877,00;97,34
2876,00;97,37
2875,00;97,39
2874,00;97,40
2873,00;97,41
2872,00;97,43
2871,00;97,45
2870,00;97,47
2869,00;97,50
2868,00;97,53
2867,00;97,55
2866,00;97,57
2865,00;97,59
2864,00;97,61
2863,00;97,63
2862,00;97,66
2861,00;97,68
2860,00;97,70
2859,00;97,72
2858,00;97,74
2857,00;97,76
2856,00;97,79
2855,00;97,81
2854,00;97,83
2853,00;97,84
2852,00;97,85
2851,00;97,86
2850,00;97,88
2849,00;97,91
2848,00;97,94
2847,00;97,95
2846,00;97,96
2845,00;97,96
2844,00;97,95
2843,00;97,95
2842,00;97,96
2841,00;97,98
2840,00;98,00
2839,00;98,02
2838,00;98,04
2837,00;98,06
2836,00;98,08
2835,00;98,10
2834,00;98,12
2833,00;98,13
2832,00;98,14
2831,00;98,15
2830,00;98,16
2829,00;98,17
2828,00;98,17
2827,00;98,18
2826,00;98,19
2825,00;98,19
2824,00;98,20
2823,00;98,22
2822,00;98,23
2821,00;98,25
2820,00;98,27
2819,00;98,28
2818,00;98,29
2817,00;98,30
2816,00;98,31
2815,00;98,33
2814,00;98,35
2813,00;98,37
2812,00;98,38
2811,00;98,38
2810,00;98,38
2809,00;98,38
2808,00;98,39
2807,00;98,40
2806,00;98,42
2805,00;98,44
2804,00;98,45
2803,00;98,45
2802,00;98,46
2801,00;98,46
2800,00;98,46
2799,00;98,47
2798,00;98,48
2797,00;98,50
2796,00;98,51
2795,00;98,52
2794,00;98,53
2793,00;98,54
2792,00;98,56
2791,00;98,58
2790,00;98,60
2789,00;98,61
2788,00;98,62
2787,00;98,63
2786,00;98,64
2785,00;98,65
2784,00;98,65
2783,00;98,66
2782,00;98,65
2781,00;98,65
2780,00;98,65
2779,00;98,66
2778,00;98,68
2777,00;98,70
2776,00;98,72
2775,00;98,73
2774,00;98,74
2773,00;98,73
2772,00;98,73
2771,00;98,74
2770,00;98,74
2769,00;98,75
2768,00;98,75
2767,00;98,75
2766,00;98,76
2765,00;98,76
2764,00;98,76
2763,00;98,77
2762,00;98,78
2761,00;98,79
2760,00;98,79
2759,00;98,81
2758,00;98,82
2757,00;98,83
2756,00;98,83
2755,00;98,83
2754,00;98,83
2753,00;98,83
2752,00;98,83
2751,00;98,84
2750,00;98,84
2749,00;98,85
2748,00;98,86
2747,00;98,87
2746,00;98,88
2745,00;98,89
2744,00;98,89
2743,00;98,89
2742,00;98,89
2741,00;98,89
2740,00;98,89
2739,00;98,89
2738,00;98,90
2737,00;98,91
2736,00;98,92
2735,00;98,93
2734,00;98,95
2733,00;98,97
2732,00;98,98
2731,00;98,98
2730,00;98,98
2729,00;98,98
2728,00;98,99
2727,00;98,99
2726,00;99,00
2725,00;98,99
2724,00;98,99
2723,00;98,98
2722,00;98,97
2721,00;98,97
2720,00;98,97
2719,00;98,98
2718,00;99,00
2717,00;99,01
2716,00;99,02
2715,00;99,02
2714,00;99,03
2713,00;99,05
2712,00;99,07
2711,00;99,07
2710,00;99,07
2709,00;99,06
2708,00;99,04
2707,00;99,04
2706,00;99,04
2705,00;99,05
2704,00;99,05
2703,00;99,05
2702,00;99,06
2701,00;99,07
2700,00;99,08
2699,00;99,08
2698,00;99,09
2697,00;99,09
2696,00;99,10
2695,00;99,10
2694,00;99,09
2693,00;99,08
2692,00;99,08
2691,00;99,08
2690,00;99,08
2689,00;99,09
2688,00;99,10
2687,00;99,10
2686,00;99,10
2685,00;99,10
2684,00;99,10
2683,00;99,10
2682,00;99,11
2681,00;99,12
2680,00;99,13
2679,00;99,13
2678,00;99,14
2677,00;99,14
2676,00;99,15
2675,00;99,15
2674,00;99,14
2673,00;99,13
2672,00;99,13
2671,00;99,14
2670,00;99,15
2669,00;99,15
2668,00;99,14
2667,00;99,13
2666,00;99,14
2665,00;99,15
2664,00;99,16
2663,00;99,16
2662,00;99,15
2661,00;99,15
2660,00;99,15
2659,00;99,15
2658,00;99,16
2657,00;99,16
2656,00;99,17
2655,00;99,17
2654,00;99,18
2653,00;99,18
2652,00;99,18
2651,00;99,18
2650,00;99,19
2649,00;99,19
2648,00;99,19
2647,00;99,19
2646,00;99,20
2645,00;99,20
2644,00;99,20
2643,00;99,19
2642,00;99,18
2641,00;99,17
2640,00;99,17
2639,00;99,18
2638,00;99,19
2637,00;99,20
2636,00;99,20
2635,00;99,19
2634,00;99,18
2633,00;99,17
2632,00;99,16
2631,00;99,17
2630,00;99,18
2629,00;99,19
2628,00;99,19
2627,00;99,18
2626,00;99,18
2625,00;99,18
2624,00;99,18
2623,00;99,18
2622,00;99,19
2621,00;99,19
2620,00;99,18
2619,00;99,18
2618,00;99,19
2617,00;99,20
2616,00;99,21
2615,00;99,21
2614,00;99,20
2613,00;99,18
2612,00;99,16
2611,00;99,14
2610,00;99,13
2609,00;99,13
2608,00;99,14
2607,00;99,16
2606,00;99,17
2605,00;99,17
2604,00;99,18
2603,00;99,19
2602,00;99,20
2601,00;99,20
2600,00;99,18
2599,00;99,17
2598,00;99,15
2597,00;99,14
2596,00;99,14
2595,00;99,13
2594,00;99,14
2593,00;99,15
2592,00;99,17
2591,00;99,19
2590,00;99,21
2589,00;99,21
2588,00;99,21
2587,00;99,20
2586,00;99,19
2585,00;99,19
2584,00;99,19
2583,00;99,18
2582,00;99,16
2581,00;99,14
2580,00;99,13
2579,00;99,14
2578,00;99,16
2577,00;99,18
2576,00;99,20
2575,00;99,20
2574,00;99,20
2573,00;99,20
2572,00;99,19
2571,00;99,18
2570,00;99,17
2569,00;99,16
2568,00;99,16
2567,00;99,17
2566,00;99,18
2565,00;99,19
2564,00;99,20
2563,00;99,20
2562,00;99,20
2561,00;99,19
2560,00;99,19
2559,00;99,18
2558,00;99,18
2557,00;99,18
2556,00;99,18
2555,00;99,17
2554,00;99,16
2553,00;99,15
2552,00;99,14
2551,00;99,14
2550,00;99,14
2549,00;99,14
2548,00;99,14
2547,00;99,15
2546,00;99,15
2545,00;99,14
2544,00;99,13
2543,00;99,12
2542,00;99,11
2541,00;99,11
2540,00;99,12
2539,00;99,13
2538,00;99,13
2537,00;99,13
2536,00;99,12
2535,00;99,11
2534,00;99,11
2533,00;99,11
2532,00;99,12
2531,00;99,12
2530,00;99,13
2529,00;99,14
2528,00;99,14
2527,00;99,12
2526,00;99,10
2525,00;99,08
2524,00;99,08
2523,00;99,08
2522,00;99,09
2521,00;99,10
2520,00;99,10
2519,00;99,10
2518,00;99,08
2517,00;99,06
2516,00;99,05
2515,00;99,05
2514,00;99,05
2513,00;99,05
2512,00;99,03
2511,00;99,02
2510,00;99,03
2509,00;99,04
2508,00;99,06
2507,00;99,06
2506,00;99,05
2505,00;99,03
2504,00;99,01
2503,00;99,00
2502,00;99,00
2501,00;99,00
2500,00;98,99
2499,00;98,99
2498,00;98,99
2497,00;98,99
2496,00;98,98
2495,00;98,98
2494,00;98,97
2493,00;98,97
2492,00;98,96
2491,00;98,96
2490,00;98,96
2489,00;98,98
2488,00;99,00
2487,00;99,02
2486,00;99,03
2485,00;99,03
2484,00;99,00
2483,00;98,98
2482,00;98,96
2481,00;98,95
2480,00;98,96
2479,00;98,96
2478,00;98,96
2477,00;98,95
2476,00;98,94
2475,00;98,94
2474,00;98,95
2473,00;98,96
2472,00;98,96
2471,00;98,96
2470,00;98,96
2469,00;98,96
2468,00;98,96
2467,00;98,95
2466,00;98,94
2465,00;98,92
2464,00;98,89
2463,00;98,86
2462,00;98,86
2461,00;98,88
2460,00;98,92
2459,00;98,96
2458,00;98,97
2457,00;98,95
2456,00;98,92
2455,00;98,90
2454,00;98,89
2453,00;98,89
2452,00;98,88
2451,00;98,87
2450,00;98,87
2449,00;98,88
2448,00;98,89
2447,00;98,89
2446,00;98,88
2445,00;98,86
2444,00;98,84
2443,00;98,84
2442,00;98,84
2441,00;98,85
2440,00;98,84
2439,00;98,83
2438,00;98,82
2437,00;98,81
2436,00;98,81
2435,00;98,81
2434,00;98,82
2433,00;98,81
2432,00;98,79
2431,00;98,79
2430,00;98,80
2429,00;98,81
2428,00;98,81
2427,00;98,80
2426,00;98,78
2425,00;98,77
2424,00;98,74
2423,00;98,72
2422,00;98,70
2421,00;98,70
2420,00;98,72
2419,00;98,74
2418,00;98,76
2417,00;98,75
2416,00;98,73
2415,00;98,72
2414,00;98,71
2413,00;98,71
2412,00;98,71
2411,00;98,71
2410,00;98,70
2409,00;98,69
2408,00;98,67
2407,00;98,66
2406,00;98,65
2405,00;98,64
2404,00;98,64
2403,00;98,63
2402,00;98,63
2401,00;98,63
2400,00;98,63
2399,00;98,63
2398,00;98,62
2397,00;98,62
2396,00;98,62
2395,00;98,62
2394,00;98,63
2393,00;98,62
2392,00;98,62
2391,00;98,61
2390,00;98,60
2389,00;98,58
2388,00;98,57
2387,00;98,56
2386,00;98,56
2385,00;98,56
2384,00;98,56
2383,00;98,55
2382,00;98,53
2381,00;98,50
2380,00;98,47
2379,00;98,45
2378,00;98,44
2377,00;98,43
2376,00;98,41
2375,00;98,40
2374,00;98,42
2373,00;98,46
2372,00;98,50
2371,00;98,53
2370,00;98,53
2369,00;98,49
2368,00;98,45
2367,00;98,41
2366,00;98,38
2365,00;98,37
2364,00;98,35
2363,00;98,34
2362,00;98,34
2361,00;98,35
2360,00;98,38
2359,00;98,43
2358,00;98,48
2357,00;98,48
2356,00;98,41
2355,00;98,32
2354,00;98,25
2353,00;98,20
2352,00;98,18
2351,00;98,21
2350,00;98,24
2349,00;98,25
2348,00;98,23
2347,00;98,20
2346,00;98,19
2345,00;98,20
2344,00;98,23
2343,00;98,25
2342,00;98,26
2341,00;98,23
2340,00;98,17
2339,00;98,10
2338,00;98,05
2337,00;98,03
2336,00;98,04
2335,00;98,08
2334,00;98,11
2333,00;98,12
2332,00;98,09
2331,00;98,05
2330,00;98,03
2329,00;98,03
2328,00;98,05
2327,00;98,07
2326,00;98,09
2325,00;98,10
2324,00;98,10
2323,00;98,09
2322,00;98,08
2321,00;98,08
2320,00;98,07
2319,00;98,06
2318,00;98,05
2317,00;98,02
2316,00;97,97
2315,00;97,95
2314,00;97,96
2313,00;97,98
2312,00;98,00
2311,00;97,99
2310,00;97,98
2309,00;97,96
2308,00;97,95
2307,00;97,95
2306,00;97,95
2305,00;97,94
2304,00;97,92
2303,00;97,91
2302,00;97,91
2301,00;97,91
2300,00;97,92
2299,00;97,92
2298,00;97,92
2297,00;97,91
2296,00;97,91
2295,00;97,90
2294,00;97,90
2293,00;97,89
2292,00;97,86
2291,00;97,84
2290,00;97,82
2289,00;97,82
2288,00;97,81
2287,00;97,79
2286,00;97,77
2285,00;97,76
2284,00;97,76
2283,00;97,75
2282,00;97,74
2281,00;97,72
2280,00;97,70
2279,00;97,69
2278,00;97,70
2277,00;97,71
2276,00;97,71
2275,00;97,72
2274,00;97,73
2273,00;97,73
2272,00;97,72
2271,00;97,69
2270,00;97,65
2269,00;97,61
2268,00;97,58
2267,00;97,57
2266,00;97,56
2265,00;97,56
2264,00;97,54
2263,00;97,53
2262,00;97,53
2261,00;97,53
2260,00;97,53
2259,00;97,52
2258,00;97,50
2257,00;97,49
2256,00;97,48
2255,00;97,48
2254,00;97,49
2253,00;97,51
2252,00;97,51
2251,00;97,49
2250,00;97,44
2249,00;97,39
2248,00;97,35
2247,00;97,33
2246,00;97,33
2245,00;97,34
2244,00;97,36
2243,00;97,38
2242,00;97,39
2241,00;97,37
2240,00;97,32
2239,00;97,29
2238,00;97,30
2237,00;97,33
2236,00;97,35
2235,00;97,35
2234,00;97,33
2233,00;97,30
2232,00;97,27
2231,00;97,26
2230,00;97,27
2229,00;97,28
2228,00;97,26
2227,00;97,22
2226,00;97,19
2225,00;97,17
2224,00;97,15
2223,00;97,13
2222,00;97,10
2221,00;97,08
2220,00;97,08
2219,00;97,10
2218,00;97,11
2217,00;97,10
2216,00;97,07
2215,00;97,05
2214,00;97,02
2213,00;97,00
2212,00;96,99
2211,00;96,99
2210,00;96,99
2209,00;96,98
2208,00;96,96
2207,00;96,92
2206,00;96,90
2205,00;96,87
2204,00;96,86
2203,00;96,87
2202,00;96,91
2201,00;96,95
2200,00;96,97
2199,00;96,96
2198,00;96,95
2197,00;96,95
2196,00;96,94
2195,00;96,92
2194,00;96,89
2193,00;96,85
2192,00;96,82
2191,00;96,82
2190,00;96,84
2189,00;96,86
2188,00;96,86
2187,00;96,85
2186,00;96,83
2185,00;96,80
2184,00;96,75
2183,00;96,70
2182,00;96,67
2181,00;96,66
2180,00;96,64
2179,00;96,62
2178,00;96,62
2177,00;96,63
2176,00;96,65
2175,00;96,66
2174,00;96,65
2173,00;96,63
2172,00;96,60
2171,00;96,58
2170,00;96,58
2169,00;96,56
2168,00;96,52
2167,00;96,49
2166,00;96,48
2165,00;96,51
2164,00;96,54
2163,00;96,57
2162,00;96,61
2161,00;96,62
2160,00;96,56
2159,00;96,46
2158,00;96,36
2157,00;96,32
2156,00;96,34
2155,00;96,40
2154,00;96,43
2153,00;96,43
2152,00;96,41
2151,00;96,42
2150,00;96,46
2149,00;96,49
2148,00;96,50
2147,00;96,49
2146,00;96,44
2145,00;96,37
2144,00;96,31
2143,00;96,28
2142,00;96,27
2141,00;96,26
2140,00;96,23
2139,00;96,18
2138,00;96,14
2137,00;96,13
2136,00;96,13
2135,00;96,16
2134,00;96,20
2133,00;96,21
2132,00;96,21
2131,00;96,19
2130,00;96,18
2129,00;96,15
2128,00;96,10
2127,00;96,07
2126,00;96,05
2125,00;96,05
2124,00;96,05
2123,00;96,04
2122,00;96,05
2121,00;96,07
2120,00;96,09
2119,00;96,09
2118,00;96,10
2117,00;96,09
2116,00;96,06
2115,00;96,04
2114,00;96,02
2113,00;96,01
2112,00;96,00
2111,00;96,01
2110,00;96,01
2109,00;96,02
2108,00;96,01
2107,00;96,00
2106,00;96,00
2105,00;96,01
2104,00;96,02
2103,00;96,03
2102,00;96,02
2101,00;95,99
2100,00;95,94
2099,00;95,91
2098,00;95,90
2097,00;95,92
2096,00;95,96
2095,00;96,00
2094,00;96,02
2093,00;96,02
2092,00;96,00
2091,00;95,97
2090,00;95,94
2089,00;95,93
2088,00;95,93
2087,00;95,95
2086,00;95,97
2085,00;95,98
2084,00;95,98
2083,00;95,98
2082,00;95,98
2081,00;95,98
2080,00;95,95
2079,00;95,94
2078,00;95,93
2077,00;95,94
2076,00;95,94
2075,00;95,94
2074,00;95,96
2073,00;95,97
2072,00;95,98
2071,00;95,98
2070,00;95,99
2069,00;96,01
2068,00;96,03
2067,00;96,04
2066,00;96,06
2065,00;96,07
2064,00;96,06
2063,00;96,05
2062,00;96,04
2061,00;96,05
2060,00;96,06
2059,00;96,08
2058,00;96,11
2057,00;96,13
2056,00;96,12
2055,00;96,10
2054,00;96,08
2053,00;96,06
2052,00;96,05
2051,00;96,07
2050,00;96,12
2049,00;96,17
2048,00;96,21
2047,00;96,24
2046,00;96,25
2045,00;96,24
2044,00;96,21
2043,00;96,22
2042,00;96,27
2041,00;96,32
2040,00;96,34
2039,00;96,34
2038,00;96,33
2037,00;96,33
2036,00;96,34
2035,00;96,38
2034,00;96,44
2033,00;96,48
2032,00;96,48
2031,00;96,46
2030,00;96,45
2029,00;96,47
2028,00;96,51
2027,00;96,55
2026,00;96,58
2025,00;96,59
2024,00;96,57
2023,00;96,54
2022,00;96,53
2021,00;96,53
2020,00;96,53
2019,00;96,53
2018,00;96,55
2017,00;96,56
2016,00;96,55
2015,00;96,55
2014,00;96,58
2013,00;96,59
2012,00;96,58
2011,00;96,55
2010,00;96,53
2009,00;96,55
2008,00;96,59
2007,00;96,64
2006,00;96,68
2005,00;96,66
2004,00;96,60
2003,00;96,56
2002,00;96,56
2001,00;96,59
2000,00;96,62
1999,00;96,63
1998,00;96,63
1997,00;96,63
1996,00;96,64
1995,00;96,67
1994,00;96,73
1993,00;96,77
1992,00;96,78
1991,00;96,79
1990,00;96,82
1989,00;96,86
1988,00;96,89
1987,00;96,93
1986,00;96,97
1985,00;96,97
1984,00;96,93
1983,00;96,89
1982,00;96,91
1981,00;96,99
1980,00;97,08
1979,00;97,15
1978,00;97,17
1977,00;97,14
1976,00;97,09
1975,00;97,05
1974,00;97,03
1973,00;97,04
1972,00;97,05
1971,00;97,09
1970,00;97,16
1969,00;97,20
1968,00;97,21
1967,00;97,19
1966,00;97,18
1965,00;97,17
1964,00;97,17
1963,00;97,20
1962,00;97,24
1961,00;97,27
1960,00;97,25
1959,00;97,19
1958,00;97,15
1957,00;97,14
1956,00;97,16
1955,00;97,21
1954,00;97,26
1953,00;97,30
1952,00;97,32
1951,00;97,34
1950,00;97,36
1949,00;97,36
1948,00;97,36
1947,00;97,38
1946,00;97,41
1945,00;97,43
1944,00;97,40
1943,00;97,37
1942,00;97,37
1941,00;97,38
1940,00;97,38
1939,00;97,38
1938,00;97,38
1937,00;97,37
1936,00;97,35
1935,00;97,34
1934,00;97,35
1933,00;97,37
1932,00;97,39
1931,00;97,40
1930,00;97,42
1929,00;97,46
1928,00;97,49
1927,00;97,51
1926,00;97,52
1925,00;97,50
1924,00;97,48
1923,00;97,46
1922,00;97,46
1921,00;97,44
1920,00;97,40
1919,00;97,39
1918,00;97,43
1917,00;97,49
1916,00;97,53
1915,00;97,53
1914,00;97,53
1913,00;97,52
1912,00;97,49
1911,00;97,45
1910,00;97,43
1909,00;97,44
1908,00;97,48
1907,00;97,54
1906,00;97,59
1905,00;97,61
1904,00;97,59
1903,00;97,57
1902,00;97,57
1901,00;97,58
1900,00;97,59
1899,00;97,62
1898,00;97,65
1897,00;97,66
1896,00;97,64
1895,00;97,61
1894,00;97,59
1893,00;97,59
1892,00;97,58
1891,00;97,56
1890,00;97,57
1889,00;97,58
1888,00;97,59
1887,00;97,60
1886,00;97,61
1885,00;97,63
1884,00;97,64
1883,00;97,63
1882,00;97,63
1881,00;97,61
1880,00;97,60
1879,00;97,59
1878,00;97,60
1877,00;97,61
1876,00;97,61
1875,00;97,61
1874,00;97,62
1873,00;97,63
1872,00;97,63
1871,00;97,63
1870,00;97,62
1869,00;97,62
1868,00;97,61
1867,00;97,62
1866,00;97,63
1865,00;97,63
1864,00;97,61
1863,00;97,61
1862,00;97,62
1861,00;97,64
1860,00;97,63
1859,00;97,62
1858,00;97,61
1857,00;97,61
1856,00;97,60
1855,00;97,61
1854,00;97,63
1853,00;97,64
1852,00;97,63
1851,00;97,61
1850,00;97,59
1849,00;97,57
1848,00;97,56
1847,00;97,55
1846,00;97,55
1845,00;97,56
1844,00;97,56
1843,00;97,56
1842,00;97,57
1841,00;97,58
1840,00;97,58
1839,00;97,57
1838,00;97,57
1837,00;97,57
1836,00;97,54
1835,00;97,52
1834,00;97,50
1833,00;97,50
1832,00;97,49
1831,00;97,50
1830,00;97,54
1829,00;97,57
1828,00;97,57
1827,00;97,55
1826,00;97,53
1825,00;97,52
1824,00;97,50
1823,00;97,49
1822,00;97,48
1821,00;97,47
1820,00;97,46
1819,00;97,44
1818,00;97,44
1817,00;97,43
1816,00;97,42
1815,00;97,41
1814,00;97,40
1813,00;97,39
1812,00;97,37
1811,00;97,35
1810,00;97,35
1809,00;97,35
1808,00;97,34
1807,00;97,35
1806,00;97,35
1805,00;97,33
1804,00;97,30
1803,00;97,26
1802,00;97,25
1801,00;97,26
1800,00;97,26
1799,00;97,25
1798,00;97,23
1797,00;97,20
1796,00;97,17
1795,00;97,16
1794,00;97,17
1793,00;97,19
1792,00;97,20
1791,00;97,20
1790,00;97,19
1789,00;97,17
1788,00;97,13
1787,00;97,10
1786,00;97,09
1785,00;97,08
1784,00;97,07
1783,00;97,06
1782,00;97,04
1781,00;97,02
1780,00;96,98
1779,00;96,95
1778,00;96,94
1777,00;96,93
1776,00;96,91
1775,00;96,91
1774,00;96,93
1773,00;96,94
1772,00;96,93
1771,00;96,90
1770,00;96,87
1769,00;96,85
1768,00;96,83
1767,00;96,83
1766,00;96,85
1765,00;96,86
1764,00;96,85
1763,00;96,84
1762,00;96,84
1761,00;96,84
1760,00;96,82
1759,00;96,79
1758,00;96,78
1757,00;96,78
1756,00;96,77
1755,00;96,76
1754,00;96,74
1753,00;96,70
1752,00;96,65
1751,00;96,62
1750,00;96,62
1749,00;96,61
1748,00;96,57
1747,00;96,52
1746,00;96,49
1745,00;96,45
1744,00;96,40
1743,00;96,36
1742,00;96,35
1741,00;96,32
1740,00;96,25
1739,00;96,16
1738,00;96,10
1737,00;96,03
1736,00;95,92
1735,00;95,76
1734,00;95,57
1733,00;95,39
1732,00;95,24
1731,00;95,12
1730,00;95,04
1729,00;94,95
1728,00;94,84
1727,00;94,72
1726,00;94,61
1725,00;94,47
1724,00;94,30
1723,00;94,13
1722,00;94,00
1721,00;93,90
1720,00;93,77
1719,00;93,58
1718,00;93,35
1717,00;93,07
1716,00;92,80
1715,00;92,58
1714,00;92,41
1713,00;92,24
1712,00;92,03
1711,00;91,82
1710,00;91,62
1709,00;91,44
1708,00;91,25
1707,00;91,03
1706,00;90,77
1705,00;90,50
1704,00;90,25
1703,00;90,06
1702,00;89,90
1701,00;89,65
1700,00;89,21
1699,00;88,82
1698,00;88,56
1697,00;88,31
1696,00;87,94
1695,00;87,55
1694,00;87,27
1693,00;87,06
1692,00;86,82
1691,00;86,55
1690,00;86,24
1689,00;85,91
1688,00;85,61
1687,00;85,35
1686,00;85,10
1685,00;84,72
1684,00;84,11
1683,00;83,58
1682,00;83,27
1681,00;82,99
1680,00;82,66
1679,00;82,35
1678,00;82,09
1677,00;81,83
1676,00;81,45
1675,00;80,95
1674,00;80,51
1673,00;80,19
1672,00;79,89
1671,00;79,51
1670,00;79,03
1669,00;78,49
1668,00;78,00
1667,00;77,64
1666,00;77,38
1665,00;77,13
1664,00;76,77
1663,00;76,27
1662,00;75,74
1661,00;75,30
1660,00;74,93
1659,00;74,59
1658,00;74,30
1657,00;74,07
1656,00;73,88
1655,00;73,64
1654,00;73,17
1653,00;72,35
1652,00;71,68
1651,00;71,42
1650,00;71,36
1649,00;71,30
1648,00;71,04
1647,00;70,55
1646,00;70,08
1645,00;69,80
1644,00;69,60
1643,00;69,43
1642,00;69,28
1641,00;69,14
1640,00;69,02
1639,00;68,93
1638,00;68,87
1637,00;68,79
1636,00;68,61
1635,00;68,43
1634,00;68,39
1633,00;68,45
1632,00;68,53
1631,00;68,62
1630,00;68,74
1629,00;68,88
1628,00;69,03
1627,00;69,19
1626,00;69,40
1625,00;69,65
1624,00;69,93
1623,00;70,23
1622,00;70,56
1621,00;70,90
1620,00;71,21
1619,00;71,51
1618,00;71,88
1617,00;72,37
1616,00;72,92
1615,00;73,40
1614,00;73,84
1613,00;74,26
1612,00;74,69
1611,00;75,14
1610,00;75,60
1609,00;76,09
1608,00;76,59
1607,00;77,06
1606,00;77,51
1605,00;77,95
1604,00;78,40
1603,00;78,85
1602,00;79,29
1601,00;79,73
1600,00;80,15
1599,00;80,53
1598,00;80,89
1597,00;81,25
1596,00;81,62
1595,00;81,98
1594,00;82,33
1593,00;82,68
1592,00;83,01
1591,00;83,32
1590,00;83,61
1589,00;83,90
1588,00;84,18
1587,00;84,45
1586,00;84,71
1585,00;84,95
1584,00;85,20
1583,00;85,42
1582,00;85,63
1581,00;85,84
1580,00;86,04
1579,00;86,22
1578,00;86,38
1577,00;86,57
1576,00;86,80
1575,00;87,01
1574,00;87,18
1573,00;87,32
1572,00;87,47
1571,00;87,63
1570,00;87,80
1569,00;87,97
1568,00;88,11
1567,00;88,21
1566,00;88,29
1565,00;88,39
1564,00;88,50
1563,00;88,60
1562,00;88,69
1561,00;88,80
1560,00;88,98
1559,00;89,19
1558,00;89,33
1557,00;89,36
1556,00;89,38
1555,00;89,41
1554,00;89,46
1553,00;89,52
1552,00;89,58
1551,00;89,65
1550,00;89,71
1549,00;89,79
1548,00;89,86
1547,00;89,92
1546,00;89,97
1545,00;90,02
1544,00;90,10
1543,00;90,19
1542,00;90,26
1541,00;90,32
1540,00;90,42
1539,00;90,48
1538,00;90,49
1537,00;90,50
1536,00;90,54
1535,00;90,58
1534,00;90,63
1533,00;90,69
1532,00;90,75
1531,00;90,79
1530,00;90,82
1529,00;90,86
1528,00;90,91
1527,00;90,96
1526,00;90,99
1525,00;91,02
1524,00;91,05
1523,00;91,07
1522,00;91,09
1521,00;91,13
1520,00;91,20
1519,00;91,26
1518,00;91,29
1517,00;91,31
1516,00;91,33
1515,00;91,35
1514,00;91,34
1513,00;91,34
1512,00;91,34
1511,00;91,35
1510,00;91,37
1509,00;91,38
1508,00;91,41
1507,00;91,48
1506,00;91,55
1505,00;91,56
1504,00;91,55
1503,00;91,55
1502,00;91,57
1501,00;91,61
1500,00;91,66
1499,00;91,72
1498,00;91,74
1497,00;91,76
1496,00;91,77
1495,00;91,78
1494,00;91,79
1493,00;91,80
1492,00;91,81
1491,00;91,81
1490,00;91,81
1489,00;91,83
1488,00;91,86
1487,00;91,88
1486,00;91,89
1485,00;91,89
1484,00;91,91
1483,00;91,93
1482,00;91,94
1481,00;91,95
1480,00;91,96
1479,00;91,97
1478,00;91,99
1477,00;92,01
1476,00;92,03
1475,00;92,05
1474,00;92,06
1473,00;92,06
1472,00;92,09
1471,00;92,12
1470,00;92,13
1469,00;92,13
1468,00;92,13
1467,00;92,15
1466,00;92,16
1465,00;92,19
1464,00;92,22
1463,00;92,23
1462,00;92,23
1461,00;92,22
1460,00;92,23
1459,00;92,23
1458,00;92,22
1457,00;92,22
1456,00;92,26
1455,00;92,28
1454,00;92,29
1453,00;92,29
1452,00;92,29
1451,00;92,30
1450,00;92,31
1449,00;92,33
1448,00;92,35
1447,00;92,37
1446,00;92,37
1445,00;92,37
1444,00;92,37
1443,00;92,36
1442,00;92,36
1441,00;92,36
1440,00;92,36
1439,00;92,37
1438,00;92,38
1437,00;92,39
1436,00;92,38
1435,00;92,37
1434,00;92,36
1433,00;92,36
1432,00;92,37
1431,00;92,38
1430,00;92,39
1429,00;92,39
1428,00;92,40
1427,00;92,41
1426,00;92,41
1425,00;92,40
1424,00;92,39
1423,00;92,39
1422,00;92,38
1421,00;92,36
1420,00;92,36
1419,00;92,36
1418,00;92,36
1417,00;92,37
1416,00;92,37
1415,00;92,37
1414,00;92,38
1413,00;92,38
1412,00;92,37
1411,00;92,37
1410,00;92,37
1409,00;92,37
1408,00;92,38
1407,00;92,39
1406,00;92,38
1405,00;92,37
1404,00;92,37
1403,00;92,37
1402,00;92,38
1401,00;92,38
1400,00;92,38
1399,00;92,38
1398,00;92,38
1397,00;92,38
1396,00;92,39
1395,00;92,40
1394,00;92,41
1393,00;92,42
1392,00;92,43
1391,00;92,45
1390,00;92,46
1389,00;92,47
1388,00;92,47
1387,00;92,49
1386,00;92,52
1385,00;92,57
1384,00;92,62
1383,00;92,66
1382,00;92,69
1381,00;92,71
1380,00;92,73
1379,00;92,76
1378,00;92,78
1377,00;92,79
1376,00;92,81
1375,00;92,82
1374,00;92,83
1373,00;92,84
1372,00;92,85
1371,00;92,85
1370,00;92,85
1369,00;92,85
1368,00;92,87
1367,00;92,90
1366,00;92,91
1365,00;92,90
1364,00;92,85
1363,00;92,80
1362,00;92,76
1361,00;92,75
1360,00;92,75
1359,00;92,73
1358,00;92,70
1357,00;92,69
1356,00;92,69
1355,00;92,70
1354,00;92,70
1353,00;92,69
1352,00;92,67
1351,00;92,64
1350,00;92,61
1349,00;92,59
1348,00;92,58
1347,00;92,57
1346,00;92,54
1345,00;92,51
1344,00;92,47
1343,00;92,41
1342,00;92,35
1341,00;92,28
1340,00;92,23
1339,00;92,20
1338,00;92,20
1337,00;92,21
1336,00;92,22
1335,00;92,23
1334,00;92,23
1333,00;92,23
1332,00;92,22
1331,00;92,20
1330,00;92,18
1329,00;92,17
1328,00;92,17
1327,00;92,18
1326,00;92,18
1325,00;92,17
1324,00;92,16
1323,00;92,15
1322,00;92,13
1321,00;92,11
1320,00;92,10
1319,00;92,09
1318,00;92,09
1317,00;92,10
1316,00;92,10
1315,00;92,09
1314,00;92,08
1313,00;92,06
1312,00;92,06
1311,00;92,06
1310,00;92,06
1309,00;92,06
1308,00;92,06
1307,00;92,07
1306,00;92,06
1305,00;92,06
1304,00;92,06
1303,00;92,05
1302,00;92,04
1301,00;92,03
1300,00;92,02
1299,00;92,00
1298,00;91,99
1297,00;91,99
1296,00;92,00
1295,00;92,00
1294,00;92,00
1293,00;91,99
1292,00;91,98
1291,00;91,97
1290,00;91,97
1289,00;91,97
1288,00;91,97
1287,00;91,97
1286,00;91,97
1285,00;91,96
1284,00;91,95
1283,00;91,95
1282,00;91,94
1281,00;91,95
1280,00;91,94
1279,00;91,94
1278,00;91,93
1277,00;91,93
1276,00;91,94
1275,00;91,94
1274,00;91,94
1273,00;91,94
1272,00;91,93
1271,00;91,92
1270,00;91,91
1269,00;91,90
1268,00;91,90
1267,00;91,90
1266,00;91,90
1265,00;91,90
1264,00;91,90
1263,00;91,90
1262,00;91,90
1261,00;91,89
1260,00;91,88
1259,00;91,87
1258,00;91,86
1257,00;91,86
1256,00;91,85
1255,00;91,85
1254,00;91,85
1253,00;91,86
1252,00;91,88
1251,00;91,89
1250,00;91,89
1249,00;91,89
1248,00;91,90
1247,00;91,91
1246,00;91,92
1245,00;91,93
1244,00;91,93
1243,00;91,93
1242,00;91,93
1241,00;91,95
1240,00;91,98
1239,00;92,02
1238,00;92,06
1237,00;92,11
1236,00;92,16
1235,00;92,22
1234,00;92,26
1233,00;92,30
1232,00;92,34
1231,00;92,37
1230,00;92,39
1229,00;92,40
1228,00;92,40
1227,00;92,38
1226,00;92,35
1225,00;92,30
1224,00;92,26
1223,00;92,22
1222,00;92,21
1221,00;92,24
1220,00;92,32
1219,00;92,42
1218,00;92,50
1217,00;92,52
1216,00;92,49
1215,00;92,43
1214,00;92,36
1213,00;92,31
1212,00;92,28
1211,00;92,28
1210,00;92,28
1209,00;92,28
1208,00;92,29
1207,00;92,29
1206,00;92,29
1205,00;92,28
1204,00;92,27
1203,00;92,25
1202,00;92,22
1201,00;92,19
1200,00;92,17
1199,00;92,14
1198,00;92,10
1197,00;92,06
1196,00;92,03
1195,00;92,00
1194,00;91,96
1193,00;91,94
1192,00;91,91
1191,00;91,89
1190,00;91,87
1189,00;91,85
1188,00;91,84
1187,00;91,82
1186,00;91,80
1185,00;91,78
1184,00;91,77
1183,00;91,77
1182,00;91,77
1181,00;91,77
1180,00;91,76
1179,00;91,76
1178,00;91,74
1177,00;91,73
1176,00;91,72
1175,00;91,71
1174,00;91,70
1173,00;91,70
1172,00;91,70
1171,00;91,70
1170,00;91,70
1169,00;91,71
1168,00;91,72
1167,00;91,71
1166,00;91,70
1165,00;91,68
1164,00;91,69
1163,00;91,70
1162,00;91,70
1161,00;91,70
1160,00;91,68
1159,00;91,67
1158,00;91,66
1157,00;91,65
1156,00;91,65
1155,00;91,65
1154,00;91,65
1153,00;91,65
1152,00;91,65
1151,00;91,66
1150,00;91,66
1149,00;91,65
1148,00;91,64
1147,00;91,63
1146,00;91,62
1145,00;91,60
1144,00;91,60
1143,00;91,61
1142,00;91,62
1141,00;91,62
1140,00;91,63
1139,00;91,63
1138,00;91,63
1137,00;91,61
1136,00;91,60
1135,00;91,58
1134,00;91,57
1133,00;91,57
1132,00;91,58
1131,00;91,60
1130,00;91,63
1129,00;91,64
1128,00;91,64
1127,00;91,62
1126,00;91,60
1125,00;91,59
1124,00;91,59
1123,00;91,58
1122,00;91,58
1121,00;91,58
1120,00;91,59
1119,00;91,59
1118,00;91,58
1117,00;91,55
1116,00;91,52
1115,00;91,50
1114,00;91,50
1113,00;91,52
1112,00;91,54
1111,00;91,55
1110,00;91,55
1109,00;91,54
1108,00;91,52
1107,00;91,49
1106,00;91,47
1105,00;91,44
1104,00;91,42
1103,00;91,41
1102,00;91,43
1101,00;91,45
1100,00;91,46
1099,00;91,45
1098,00;91,43
1097,00;91,42
1096,00;91,41
1095,00;91,41
1094,00;91,39
1093,00;91,38
1092,00;91,37
1091,00;91,38
1090,00;91,38
1089,00;91,36
1088,00;91,34
1087,00;91,32
1086,00;91,32
1085,00;91,31
1084,00;91,31
1083,00;91,32
1082,00;91,33
1081,00;91,32
1080,00;91,29
1079,00;91,25
1078,00;91,21
1077,00;91,19
1076,00;91,19
1075,00;91,22
1074,00;91,25
1073,00;91,24
1072,00;91,21
1071,00;91,17
1070,00;91,15
1069,00;91,14
1068,00;91,15
1067,00;91,15
1066,00;91,16
1065,00;91,17
1064,00;91,17
1063,00;91,16
1062,00;91,14
1061,00;91,12
1060,00;91,12
1059,00;91,11
1058,00;91,09
1057,00;91,05
1056,00;91,01
1055,00;90,98
1054,00;90,97
1053,00;90,97
1052,00;90,98
1051,00;91,01
1050,00;91,02
1049,00;91,02
1048,00;90,98
1047,00;90,94
1046,00;90,91
1045,00;90,89
1044,00;90,89
1043,00;90,89
1042,00;90,87
1041,00;90,86
1040,00;90,85
1039,00;90,85
1038,00;90,84
1037,00;90,82
1036,00;90,79
1035,00;90,75
1034,00;90,71
1033,00;90,69
1032,00;90,67
1031,00;90,66
1030,00;90,65
1029,00;90,64
1028,00;90,64
1027,00;90,65
1026,00;90,68
1025,00;90,69
1024,00;90,68
1023,00;90,65
1022,00;90,63
1021,00;90,61
1020,00;90,59
1019,00;90,57
1018,00;90,55
1017,00;90,52
1016,00;90,50
1015,00;90,49
1014,00;90,47
1013,00;90,45
1012,00;90,43
1011,00;90,41
1010,00;90,40
1009,00;90,39
1008,00;90,37
1007,00;90,34
1006,00;90,30
1005,00;90,25
1004,00;90,22
1003,00;90,18
1002,00;90,14
1001,00;90,10
1000,00;90,08
999,00;90,06
998,00;90,06
997,00;90,05
996,00;90,03
995,00;90,00
994,00;89,98
993,00;89,97
992,00;89,94
991,00;89,90
990,00;89,85
989,00;89,80
988,00;89,76
987,00;89,71
986,00;89,66
985,00;89,61
984,00;89,57
983,00;89,55
982,00;89,53
981,00;89,51
980,00;89,49
979,00;89,46
978,00;89,42
977,00;89,38
976,00;89,34
975,00;89,31
974,00;89,28
973,00;89,26
972,00;89,23
971,00;89,20
970,00;89,16
969,00;89,11
968,00;89,06
967,00;89,01
966,00;88,95
965,00;88,90
964,00;88,84
963,00;88,79
962,00;88,74
961,00;88,68
960,00;88,63
959,00;88,58
958,00;88,53
957,00;88,49
956,00;88,45
955,00;88,40
954,00;88,34
953,00;88,27
952,00;88,21
951,00;88,15
950,00;88,08
949,00;88,01
948,00;87,94
947,00;87,88
946,00;87,83
945,00;87,78
944,00;87,72
943,00;87,67
942,00;87,60
941,00;87,53
940,00;87,46
939,00;87,40
938,00;87,32
937,00;87,24
936,00;87,15
935,00;87,07
934,00;87,00
933,00;86,94
932,00;86,88
931,00;86,81
930,00;86,72
929,00;86,63
928,00;86,55
927,00;86,48
926,00;86,42
925,00;86,34
924,00;86,25
923,00;86,15
922,00;86,05
921,00;85,93
920,00;85,82
919,00;85,71
918,00;85,62
917,00;85,53
916,00;85,44
915,00;85,35
914,00;85,28
913,00;85,21
912,00;85,13
911,00;85,04
910,00;84,93
909,00;84,80
908,00;84,67
907,00;84,56
906,00;84,46
905,00;84,35
904,00;84,22
903,00;84,08
902,00;83,97
901,00;83,88
900,00;83,79
899,00;83,71
898,00;83,62
897,00;83,51
896,00;83,39
895,00;83,27
894,00;83,15
893,00;83,01
892,00;82,86
891,00;82,71
890,00;82,58
889,00;82,45
888,00;82,32
887,00;82,19
886,00;82,06
885,00;81,92
884,00;81,77
883,00;81,63
882,00;81,49
881,00;81,36
880,00;81,23
879,00;81,11
878,00;81,00
877,00;80,87
876,00;80,73
875,00;80,57
874,00;80,42
873,00;80,27
872,00;80,12
871,00;79,96
870,00;79,80
869,00;79,65
868,00;79,48
867,00;79,32
866,00;79,17
865,00;79,00
864,00;78,82
863,00;78,65
862,00;78,49
861,00;78,37
860,00;78,25
859,00;78,14
858,00;78,00
857,00;77,84
856,00;77,67
855,00;77,51
854,00;77,37
853,00;77,22
852,00;77,04
851,00;76,86
850,00;76,67
849,00;76,47
848,00;76,27
847,00;76,10
846,00;75,95
845,00;75,79
844,00;75,62
843,00;75,44
842,00;75,27
841,00;75,10
840,00;74,93
839,00;74,79
838,00;74,64
837,00;74,47
836,00;74,29
835,00;74,13
834,00;73,99
833,00;73,84
832,00;73,67
831,00;73,50
830,00;73,34
829,00;73,17
828,00;72,98
827,00;72,80
826,00;72,65
825,00;72,47
824,00;72,26
823,00;72,05
822,00;71,86
821,00;71,68
820,00;71,50
819,00;71,34
818,00;71,21
817,00;71,08
816,00;70,91
815,00;70,73
814,00;70,56
813,00;70,39
812,00;70,23
811,00;70,07
810,00;69,91
809,00;69,75
808,00;69,56
807,00;69,38
806,00;69,19
805,00;68,97
804,00;68,74
803,00;68,54
802,00;68,39
801,00;68,25
800,00;68,10
799,00;67,96
798,00;67,80
797,00;67,60
796,00;67,38
795,00;67,18
794,00;67,03
793,00;66,91
792,00;66,77
791,00;66,61
790,00;66,44
789,00;66,25
788,00;66,04
787,00;65,83
786,00;65,64
785,00;65,44
784,00;65,25
783,00;65,10
782,00;64,97
781,00;64,81
780,00;64,62
779,00;64,45
778,00;64,31
777,00;64,16
776,00;63,99
775,00;63,81
774,00;63,67
773,00;63,53
772,00;63,36
771,00;63,16
770,00;62,97
769,00;62,78
768,00;62,60
767,00;62,43
766,00;62,29
765,00;62,15
764,00;61,98
763,00;61,82
762,00;61,67
761,00;61,49
760,00;61,28
759,00;61,09
758,00;60,92
757,00;60,76
756,00;60,59
755,00;60,43
754,00;60,30
753,00;60,15
752,00;59,96
751,00;59,77
750,00;59,60
749,00;59,43
748,00;59,26
747,00;59,08
746,00;58,92
745,00;58,76
744,00;58,58
743,00;58,42
742,00;58,28
741,00;58,13
740,00;57,96
739,00;57,80
738,00;57,65
737,00;57,49
736,00;57,28
735,00;57,09
734,00;56,96
733,00;56,84
732,00;56,69
731,00;56,51
730,00;56,34
729,00;56,18
728,00;56,01
727,00;55,86
726,00;55,73
725,00;55,58
724,00;55,42
723,00;55,26
722,00;55,12
721,00;54,96
720,00;54,76
719,00;54,59
718,00;54,46
717,00;54,34
716,00;54,19
715,00;54,04
714,00;53,92
713,00;53,78
712,00;53,58
711,00;53,39
710,00;53,24
709,00;53,12
708,00;52,98
707,00;52,84
706,00;52,71
705,00;52,57
704,00;52,38
703,00;52,21
702,00;52,06
701,00;51,91
700,00;51,73
699,00;51,57
698,00;51,47
697,00;51,36
696,00;51,20
695,00;51,01
694,00;50,85
693,00;50,70
692,00;50,56
691,00;50,43
690,00;50,33
689,00;50,17
688,00;49,96
687,00;49,78
686,00;49,67
685,00;49,60
684,00;49,49
683,00;49,36
682,00;49,24
681,00;49,08
680,00;48,89
679,00;48,76
678,00;48,69
677,00;48,62
676,00;48,47
675,00;48,30
674,00;48,16
673,00;48,03
672,00;47,87
671,00;47,73
670,00;47,62
669,00;47,46
668,00;47,21
667,00;47,09
666,00;47,08
665,00;47,01
664,00;46,86
663,00;46,72
662,00;46,65
661,00;46,58
660,00;46,46
659,00;46,34
658,00;46,26
657,00;46,14
656,00;45,93
655,00;45,76
654,00;45,72
653,00;45,71
652,00;45,61
651,00;45,47
650,00;45,33
649,00;45,15
648,00;44,91
647,00;44,75
646,00;44,71
645,00;44,65
644,00;44,48
643,00;44,34
642,00;44,31
641,00;44,28
640,00;44,15
639,00;44,03
638,00;44,00
637,00;43,95
636,00;43,79
635,00;43,68
634,00;43,72
633,00;43,71
632,00;43,57
631,00;43,44
630,00;43,45
629,00;43,41
628,00;43,20
627,00;42,98
626,00;42,88
625,00;42,78
624,00;42,59
623,00;42,55
622,00;42,73
621,00;42,78
620,00;42,53
619,00;42,39
618,00;42,65
617,00;42,92
616,00;42,79
615,00;42,48
614,00;42,29
613,00;42,03
612,00;41,59
611,00;41,29
610,00;41,29
609,00;41,21
608,00;40,87
607,00;40,64
606,00;40,76
605,00;40,82
604,00;40,59
603,00;40,43
602,00;40,56
601,00;40,60
600,00;40,26
