Created as New Dataset;Sample 003 By Administrator Date maandag, maart 02 2026
cm-1;%T
4000,00;99,61
3999,00;99,61
3998,00;99,61
3997,00;99,61
3996,00;99,61
3995,00;99,61
3994,00;99,63
3993,00;99,63
3992,00;99,64
3991,00;99,65
3990,00;99,65
3989,00;99,64
3988,00;99,63
3987,00;99,61
3986,00;99,60
3985,00;99,60
3984,00;99,60
3983,00;99,60
3982,00;99,59
3981,00;99,58
3980,00;99,56
3979,00;99,55
3978,00;99,55
3977,00;99,54
3976,00;99,54
3975,00;99,54
3974,00;99,55
3973,00;99,56
3972,00;99,58
3971,00;99,60
3970,00;99,62
3969,00;99,62
3968,00;99,63
3967,00;99,62
3966,00;99,61
3965,00;99,59
3964,00;99,58
3963,00;99,57
3962,00;99,56
3961,00;99,56
3960,00;99,56
3959,00;99,57
3958,00;99,57
3957,00;99,57
3956,00;99,57
3955,00;99,56
3954,00;99,54
3953,00;99,54
3952,00;99,53
3951,00;99,54
3950,00;99,55
3949,00;99,56
3948,00;99,57
3947,00;99,57
3946,00;99,57
3945,00;99,58
3944,00;99,60
3943,00;99,61
3942,00;99,61
3941,00;99,60
3940,00;99,59
3939,00;99,57
3938,00;99,57
3937,00;99,56
3936,00;99,56
3935,00;99,55
3934,00;99,55
3933,00;99,55
3932,00;99,56
3931,00;99,57
3930,00;99,58
3929,00;99,59
3928,00;99,58
3927,00;99,57
3926,00;99,55
3925,00;99,53
3924,00;99,52
3923,00;99,51
3922,00;99,50
3921,00;99,49
3920,00;99,48
3919,00;99,48
3918,00;99,51
3917,00;99,54
3916,00;99,58
3915,00;99,60
3914,00;99,60
3913,00;99,60
3912,00;99,58
3911,00;99,56
3910,00;99,54
3909,00;99,52
3908,00;99,50
3907,00;99,48
3906,00;99,47
3905,00;99,46
3904,00;99,47
3903,00;99,48
3902,00;99,50
3901,00;99,53
3900,00;99,57
3899,00;99,59
3898,00;99,60
3897,00;99,58
3896,00;99,54
3895,00;99,51
3894,00;99,49
3893,00;99,50
3892,00;99,53
3891,00;99,55
3890,00;99,55
3889,00;99,53
3888,00;99,52
3887,00;99,52
3886,00;99,52
3885,00;99,52
3884,00;99,51
3883,00;99,53
3882,00;99,56
3881,00;99,58
3880,00;99,59
3879,00;99,56
3878,00;99,52
3877,00;99,48
3876,00;99,45
3875,00;99,44
3874,00;99,43
3873,00;99,43
3872,00;99,45
3871,00;99,47
3870,00;99,47
3869,00;99,45
3868,00;99,44
3867,00;99,45
3866,00;99,47
3865,00;99,48
3864,00;99,51
3863,00;99,53
3862,00;99,54
3861,00;99,53
3860,00;99,51
3859,00;99,47
3858,00;99,44
3857,00;99,41
3856,00;99,39
3855,00;99,41
3854,00;99,46
3853,00;99,52
3852,00;99,56
3851,00;99,58
3850,00;99,57
3849,00;99,56
3848,00;99,53
3847,00;99,51
3846,00;99,48
3845,00;99,45
3844,00;99,42
3843,00;99,41
3842,00;99,39
3841,00;99,38
3840,00;99,37
3839,00;99,37
3838,00;99,37
3837,00;99,38
3836,00;99,39
3835,00;99,42
3834,00;99,44
3833,00;99,46
3832,00;99,47
3831,00;99,46
3830,00;99,44
3829,00;99,42
3828,00;99,42
3827,00;99,41
3826,00;99,39
3825,00;99,36
3824,00;99,33
3823,00;99,32
3822,00;99,32
3821,00;99,31
3820,00;99,32
3819,00;99,33
3818,00;99,37
3817,00;99,41
3816,00;99,44
3815,00;99,47
3814,00;99,48
3813,00;99,49
3812,00;99,47
3811,00;99,43
3810,00;99,39
3809,00;99,37
3808,00;99,37
3807,00;99,37
3806,00;99,34
3805,00;99,31
3804,00;99,30
3803,00;99,31
3802,00;99,32
3801,00;99,30
3800,00;99,29
3799,00;99,29
3798,00;99,31
3797,00;99,32
3796,00;99,33
3795,00;99,33
3794,00;99,34
3793,00;99,35
3792,00;99,36
3791,00;99,36
3790,00;99,36
3789,00;99,35
3788,00;99,33
3787,00;99,33
3786,00;99,33
3785,00;99,33
3784,00;99,32
3783,00;99,31
3782,00;99,29
3781,00;99,28
3780,00;99,26
3779,00;99,25
3778,00;99,25
3777,00;99,25
3776,00;99,26
3775,00;99,24
3774,00;99,21
3773,00;99,18
3772,00;99,16
3771,00;99,16
3770,00;99,17
3769,00;99,20
3768,00;99,23
3767,00;99,27
3766,00;99,28
3765,00;99,26
3764,00;99,21
3763,00;99,17
3762,00;99,14
3761,00;99,12
3760,00;99,13
3759,00;99,14
3758,00;99,14
3757,00;99,11
3756,00;99,06
3755,00;99,01
3754,00;98,96
3753,00;98,93
3752,00;98,91
3751,00;98,94
3750,00;98,96
3749,00;98,97
3748,00;98,95
3747,00;98,96
3746,00;99,01
3745,00;99,05
3744,00;99,05
3743,00;99,01
3742,00;98,97
3741,00;98,93
3740,00;98,89
3739,00;98,84
3738,00;98,80
3737,00;98,76
3736,00;98,73
3735,00;98,72
3734,00;98,74
3733,00;98,78
3732,00;98,81
3731,00;98,81
3730,00;98,78
3729,00;98,75
3728,00;98,71
3727,00;98,67
3726,00;98,64
3725,00;98,64
3724,00;98,65
3723,00;98,67
3722,00;98,67
3721,00;98,65
3720,00;98,61
3719,00;98,57
3718,00;98,53
3717,00;98,50
3716,00;98,46
3715,00;98,42
3714,00;98,36
3713,00;98,29
3712,00;98,22
3711,00;98,17
3710,00;98,14
3709,00;98,11
3708,00;98,09
3707,00;98,06
3706,00;98,03
3705,00;97,99
3704,00;97,96
3703,00;97,93
3702,00;97,88
3701,00;97,82
3700,00;97,75
3699,00;97,67
3698,00;97,59
3697,00;97,51
3696,00;97,42
3695,00;97,34
3694,00;97,27
3693,00;97,19
3692,00;97,11
3691,00;97,02
3690,00;96,92
3689,00;96,81
3688,00;96,70
3687,00;96,59
3686,00;96,49
3685,00;96,39
3684,00;96,29
3683,00;96,18
3682,00;96,08
3681,00;95,97
3680,00;95,85
3679,00;95,72
3678,00;95,60
3677,00;95,44
3676,00;95,22
3675,00;94,99
3674,00;94,82
3673,00;94,72
3672,00;94,63
3671,00;94,50
3670,00;94,32
3669,00;94,13
3668,00;93,97
3667,00;93,83
3666,00;93,69
3665,00;93,54
3664,00;93,38
3663,00;93,22
3662,00;93,05
3661,00;92,88
3660,00;92,70
3659,00;92,53
3658,00;92,35
3657,00;92,14
3656,00;91,93
3655,00;91,75
3654,00;91,61
3653,00;91,50
3652,00;91,36
3651,00;91,17
3650,00;90,91
3649,00;90,65
3648,00;90,43
3647,00;90,25
3646,00;90,10
3645,00;89,97
3644,00;89,86
3643,00;89,74
3642,00;89,60
3641,00;89,44
3640,00;89,27
3639,00;89,08
3638,00;88,88
3637,00;88,71
3636,00;88,55
3635,00;88,41
3634,00;88,27
3633,00;88,13
3632,00;88,02
3631,00;87,90
3630,00;87,73
3629,00;87,49
3628,00;87,25
3627,00;87,07
3626,00;86,96
3625,00;86,86
3624,00;86,75
3623,00;86,64
3622,00;86,53
3621,00;86,41
3620,00;86,26
3619,00;86,10
3618,00;85,93
3617,00;85,79
3616,00;85,66
3615,00;85,52
3614,00;85,35
3613,00;85,17
3612,00;85,01
3611,00;84,89
3610,00;84,79
3609,00;84,67
3608,00;84,51
3607,00;84,34
3606,00;84,20
3605,00;84,08
3604,00;83,96
3603,00;83,84
3602,00;83,69
3601,00;83,53
3600,00;83,37
3599,00;83,24
3598,00;83,13
3597,00;83,02
3596,00;82,90
3595,00;82,74
3594,00;82,56
3593,00;82,39
3592,00;82,25
3591,00;82,13
3590,00;82,01
3589,00;81,86
3588,00;81,67
3587,00;81,49
3586,00;81,33
3585,00;81,21
3584,00;81,10
3583,00;80,98
3582,00;80,85
3581,00;80,71
3580,00;80,55
3579,00;80,39
3578,00;80,22
3577,00;80,05
3576,00;79,90
3575,00;79,76
3574,00;79,64
3573,00;79,53
3572,00;79,43
3571,00;79,32
3570,00;79,20
3569,00;79,04
3568,00;78,84
3567,00;78,60
3566,00;78,39
3565,00;78,21
3564,00;78,08
3563,00;77,95
3562,00;77,82
3561,00;77,69
3560,00;77,55
3559,00;77,42
3558,00;77,28
3557,00;77,14
3556,00;77,00
3555,00;76,84
3554,00;76,67
3553,00;76,49
3552,00;76,30
3551,00;76,13
3550,00;75,99
3549,00;75,87
3548,00;75,73
3547,00;75,56
3546,00;75,36
3545,00;75,16
3544,00;74,97
3543,00;74,80
3542,00;74,66
3541,00;74,54
3540,00;74,41
3539,00;74,28
3538,00;74,12
3537,00;73,95
3536,00;73,78
3535,00;73,61
3534,00;73,47
3533,00;73,33
3532,00;73,19
3531,00;73,05
3530,00;72,90
3529,00;72,74
3528,00;72,57
3527,00;72,40
3526,00;72,24
3525,00;72,08
3524,00;71,91
3523,00;71,72
3522,00;71,54
3521,00;71,38
3520,00;71,23
3519,00;71,10
3518,00;70,97
3517,00;70,83
3516,00;70,69
3515,00;70,55
3514,00;70,40
3513,00;70,25
3512,00;70,08
3511,00;69,91
3510,00;69,73
3509,00;69,57
3508,00;69,42
3507,00;69,29
3506,00;69,16
3505,00;69,01
3504,00;68,83
3503,00;68,63
3502,00;68,43
3501,00;68,24
3500,00;68,09
3499,00;67,95
3498,00;67,83
3497,00;67,70
3496,00;67,55
3495,00;67,39
3494,00;67,23
3493,00;67,08
3492,00;66,94
3491,00;66,79
3490,00;66,64
3489,00;66,49
3488,00;66,33
3487,00;66,17
3486,00;66,02
3485,00;65,87
3484,00;65,72
3483,00;65,56
3482,00;65,39
3481,00;65,22
3480,00;65,05
3479,00;64,91
3478,00;64,78
3477,00;64,64
3476,00;64,50
3475,00;64,36
3474,00;64,20
3473,00;64,04
3472,00;63,88
3471,00;63,72
3470,00;63,56
3469,00;63,40
3468,00;63,25
3467,00;63,11
3466,00;62,96
3465,00;62,81
3464,00;62,67
3463,00;62,52
3462,00;62,36
3461,00;62,19
3460,00;62,02
3459,00;61,86
3458,00;61,72
3457,00;61,59
3456,00;61,45
3455,00;61,31
3454,00;61,16
3453,00;61,01
3452,00;60,85
3451,00;60,71
3450,00;60,57
3449,00;60,42
3448,00;60,25
3447,00;60,07
3446,00;59,91
3445,00;59,76
3444,00;59,62
3443,00;59,49
3442,00;59,35
3441,00;59,20
3440,00;59,05
3439,00;58,89
3438,00;58,73
3437,00;58,58
3436,00;58,45
3435,00;58,32
3434,00;58,20
3433,00;58,06
3432,00;57,92
3431,00;57,77
3430,00;57,62
3429,00;57,48
3428,00;57,34
3427,00;57,21
3426,00;57,08
3425,00;56,95
3424,00;56,82
3423,00;56,68
3422,00;56,53
3421,00;56,39
3420,00;56,25
3419,00;56,13
3418,00;56,02
3417,00;55,92
3416,00;55,81
3415,00;55,69
3414,00;55,56
3413,00;55,42
3412,00;55,28
3411,00;55,14
3410,00;55,00
3409,00;54,88
3408,00;54,78
3407,00;54,68
3406,00;54,58
3405,00;54,48
3404,00;54,35
3403,00;54,22
3402,00;54,09
3401,00;53,98
3400,00;53,89
3399,00;53,80
3398,00;53,71
3397,00;53,62
3396,00;53,52
3395,00;53,43
3394,00;53,33
3393,00;53,21
3392,00;53,10
3391,00;53,01
3390,00;52,93
3389,00;52,88
3388,00;52,83
3387,00;52,77
3386,00;52,69
3385,00;52,60
3384,00;52,51
3383,00;52,43
3382,00;52,37
3381,00;52,32
3380,00;52,27
3379,00;52,20
3378,00;52,12
3377,00;52,03
3376,00;51,96
3375,00;51,90
3374,00;51,86
3373,00;51,81
3372,00;51,77
3371,00;51,72
3370,00;51,66
3369,00;51,60
3368,00;51,54
3367,00;51,49
3366,00;51,45
3365,00;51,42
3364,00;51,39
3363,00;51,36
3362,00;51,32
3361,00;51,27
3360,00;51,23
3359,00;51,20
3358,00;51,18
3357,00;51,17
3356,00;51,15
3355,00;51,13
3354,00;51,10
3353,00;51,06
3352,00;51,02
3351,00;50,99
3350,00;50,97
3349,00;50,95
3348,00;50,95
3347,00;50,94
3346,00;50,93
3345,00;50,92
3344,00;50,90
3343,00;50,88
3342,00;50,85
3341,00;50,84
3340,00;50,84
3339,00;50,84
3338,00;50,85
3337,00;50,85
3336,00;50,84
3335,00;50,83
3334,00;50,82
3333,00;50,81
3332,00;50,81
3331,00;50,81
3330,00;50,82
3329,00;50,83
3328,00;50,84
3327,00;50,83
3326,00;50,82
3325,00;50,80
3324,00;50,80
3323,00;50,79
3322,00;50,79
3321,00;50,78
3320,00;50,79
3319,00;50,80
3318,00;50,82
3317,00;50,83
3316,00;50,85
3315,00;50,87
3314,00;50,90
3313,00;50,92
3312,00;50,91
3311,00;50,89
3310,00;50,85
3309,00;50,83
3308,00;50,83
3307,00;50,84
3306,00;50,86
3305,00;50,88
3304,00;50,90
3303,00;50,91
3302,00;50,93
3301,00;50,95
3300,00;50,96
3299,00;50,97
3298,00;50,97
3297,00;50,96
3296,00;50,95
3295,00;50,94
3294,00;50,94
3293,00;50,94
3292,00;50,95
3291,00;50,96
3290,00;50,96
3289,00;50,96
3288,00;50,97
3287,00;50,98
3286,00;51,00
3285,00;51,03
3284,00;51,05
3283,00;51,06
3282,00;51,06
3281,00;51,05
3280,00;51,05
3279,00;51,04
3278,00;51,05
3277,00;51,05
3276,00;51,07
3275,00;51,08
3274,00;51,10
3273,00;51,12
3272,00;51,14
3271,00;51,16
3270,00;51,17
3269,00;51,17
3268,00;51,18
3267,00;51,18
3266,00;51,19
3265,00;51,20
3264,00;51,22
3263,00;51,23
3262,00;51,25
3261,00;51,27
3260,00;51,29
3259,00;51,31
3258,00;51,32
3257,00;51,34
3256,00;51,37
3255,00;51,39
3254,00;51,41
3253,00;51,42
3252,00;51,43
3251,00;51,45
3250,00;51,47
3249,00;51,50
3248,00;51,53
3247,00;51,56
3246,00;51,61
3245,00;51,66
3244,00;51,70
3243,00;51,74
3242,00;51,79
3241,00;51,83
3240,00;51,87
3239,00;51,91
3238,00;51,96
3237,00;52,00
3236,00;52,05
3235,00;52,10
3234,00;52,16
3233,00;52,22
3232,00;52,28
3231,00;52,35
3230,00;52,41
3229,00;52,48
3228,00;52,54
3227,00;52,61
3226,00;52,67
3225,00;52,74
3224,00;52,81
3223,00;52,88
3222,00;52,97
3221,00;53,06
3220,00;53,16
3219,00;53,25
3218,00;53,33
3217,00;53,41
3216,00;53,50
3215,00;53,60
3214,00;53,72
3213,00;53,84
3212,00;53,96
3211,00;54,07
3210,00;54,17
3209,00;54,28
3208,00;54,39
3207,00;54,50
3206,00;54,61
3205,00;54,72
3204,00;54,84
3203,00;54,97
3202,00;55,10
3201,00;55,24
3200,00;55,37
3199,00;55,51
3198,00;55,65
3197,00;55,79
3196,00;55,94
3195,00;56,08
3194,00;56,21
3193,00;56,35
3192,00;56,47
3191,00;56,61
3190,00;56,76
3189,00;56,92
3188,00;57,09
3187,00;57,26
3186,00;57,41
3185,00;57,56
3184,00;57,71
3183,00;57,89
3182,00;58,08
3181,00;58,27
3180,00;58,45
3179,00;58,62
3178,00;58,78
3177,00;58,95
3176,00;59,11
3175,00;59,28
3174,00;59,46
3173,00;59,64
3172,00;59,83
3171,00;60,03
3170,00;60,22
3169,00;60,41
3168,00;60,60
3167,00;60,79
3166,00;60,98
3165,00;61,17
3164,00;61,36
3163,00;61,54
3162,00;61,73
3161,00;61,92
3160,00;62,13
3159,00;62,33
3158,00;62,54
3157,00;62,74
3156,00;62,94
3155,00;63,14
3154,00;63,34
3153,00;63,54
3152,00;63,74
3151,00;63,94
3150,00;64,14
3149,00;64,35
3148,00;64,56
3147,00;64,77
3146,00;64,98
3145,00;65,20
3144,00;65,42
3143,00;65,63
3142,00;65,83
3141,00;66,02
3140,00;66,21
3139,00;66,41
3138,00;66,62
3137,00;66,83
3136,00;67,04
3135,00;67,25
3134,00;67,46
3133,00;67,67
3132,00;67,89
3131,00;68,11
3130,00;68,33
3129,00;68,54
3128,00;68,75
3127,00;68,97
3126,00;69,19
3125,00;69,41
3124,00;69,62
3123,00;69,83
3122,00;70,04
3121,00;70,25
3120,00;70,46
3119,00;70,67
3118,00;70,88
3117,00;71,09
3116,00;71,30
3115,00;71,51
3114,00;71,73
3113,00;71,93
3112,00;72,13
3111,00;72,32
3110,00;72,52
3109,00;72,71
3108,00;72,92
3107,00;73,13
3106,00;73,34
3105,00;73,55
3104,00;73,76
3103,00;73,98
3102,00;74,20
3101,00;74,41
3100,00;74,61
3099,00;74,79
3098,00;74,97
3097,00;75,15
3096,00;75,33
3095,00;75,53
3094,00;75,74
3093,00;75,95
3092,00;76,15
3091,00;76,34
3090,00;76,51
3089,00;76,68
3088,00;76,86
3087,00;77,04
3086,00;77,24
3085,00;77,43
3084,00;77,63
3083,00;77,81
3082,00;77,99
3081,00;78,17
3080,00;78,35
3079,00;78,52
3078,00;78,70
3077,00;78,89
3076,00;79,06
3075,00;79,24
3074,00;79,40
3073,00;79,57
3072,00;79,74
3071,00;79,92
3070,00;80,10
3069,00;80,28
3068,00;80,46
3067,00;80,63
3066,00;80,79
3065,00;80,95
3064,00;81,10
3063,00;81,27
3062,00;81,44
3061,00;81,60
3060,00;81,76
3059,00;81,91
3058,00;82,07
3057,00;82,23
3056,00;82,39
3055,00;82,56
3054,00;82,72
3053,00;82,87
3052,00;83,01
3051,00;83,15
3050,00;83,29
3049,00;83,44
3048,00;83,58
3047,00;83,73
3046,00;83,88
3045,00;84,02
3044,00;84,17
3043,00;84,31
3042,00;84,44
3041,00;84,58
3040,00;84,72
3039,00;84,86
3038,00;85,00
3037,00;85,15
3036,00;85,30
3035,00;85,45
3034,00;85,59
3033,00;85,72
3032,00;85,84
3031,00;85,96
3030,00;86,07
3029,00;86,20
3028,00;86,33
3027,00;86,46
3026,00;86,59
3025,00;86,73
3024,00;86,87
3023,00;87,00
3022,00;87,12
3021,00;87,23
3020,00;87,33
3019,00;87,44
3018,00;87,55
3017,00;87,66
3016,00;87,77
3015,00;87,88
3014,00;87,99
3013,00;88,11
3012,00;88,24
3011,00;88,36
3010,00;88,47
3009,00;88,59
3008,00;88,70
3007,00;88,81
3006,00;88,92
3005,00;89,02
3004,00;89,12
3003,00;89,22
3002,00;89,32
3001,00;89,41
3000,00;89,49
2999,00;89,58
2998,00;89,69
2997,00;89,79
2996,00;89,89
2995,00;89,98
2994,00;90,08
2993,00;90,17
2992,00;90,26
2991,00;90,35
2990,00;90,44
2989,00;90,52
2988,00;90,60
2987,00;90,68
2986,00;90,77
2985,00;90,85
2984,00;90,93
2983,00;91,02
2982,00;91,12
2981,00;91,21
2980,00;91,31
2979,00;91,41
2978,00;91,49
2977,00;91,57
2976,00;91,65
2975,00;91,74
2974,00;91,84
2973,00;91,94
2972,00;92,05
2971,00;92,14
2970,00;92,21
2969,00;92,27
2968,00;92,33
2967,00;92,39
2966,00;92,47
2965,00;92,54
2964,00;92,61
2963,00;92,67
2962,00;92,72
2961,00;92,78
2960,00;92,84
2959,00;92,91
2958,00;93,00
2957,00;93,08
2956,00;93,16
2955,00;93,24
2954,00;93,30
2953,00;93,37
2952,00;93,43
2951,00;93,49
2950,00;93,55
2949,00;93,61
2948,00;93,67
2947,00;93,74
2946,00;93,80
2945,00;93,85
2944,00;93,90
2943,00;93,96
2942,00;94,01
2941,00;94,08
2940,00;94,15
2939,00;94,22
2938,00;94,29
2937,00;94,35
2936,00;94,41
2935,00;94,45
2934,00;94,50
2933,00;94,55
2932,00;94,61
2931,00;94,67
2930,00;94,73
2929,00;94,80
2928,00;94,87
2927,00;94,92
2926,00;94,96
2925,00;95,00
2924,00;95,03
2923,00;95,08
2922,00;95,13
2921,00;95,17
2920,00;95,21
2919,00;95,25
2918,00;95,29
2917,00;95,34
2916,00;95,38
2915,00;95,43
2914,00;95,47
2913,00;95,50
2912,00;95,53
2911,00;95,56
2910,00;95,59
2909,00;95,62
2908,00;95,65
2907,00;95,67
2906,00;95,70
2905,00;95,73
2904,00;95,77
2903,00;95,81
2902,00;95,86
2901,00;95,91
2900,00;95,95
2899,00;95,99
2898,00;96,02
2897,00;96,05
2896,00;96,08
2895,00;96,11
2894,00;96,14
2893,00;96,18
2892,00;96,21
2891,00;96,24
2890,00;96,27
2889,00;96,31
2888,00;96,34
2887,00;96,38
2886,00;96,40
2885,00;96,42
2884,00;96,45
2883,00;96,48
2882,00;96,51
2881,00;96,54
2880,00;96,58
2879,00;96,61
2878,00;96,65
2877,00;96,69
2876,00;96,73
2875,00;96,75
2874,00;96,77
2873,00;96,79
2872,00;96,81
2871,00;96,84
2870,00;96,88
2869,00;96,93
2868,00;96,97
2867,00;97,00
2866,00;97,02
2865,00;97,04
2864,00;97,06
2863,00;97,10
2862,00;97,13
2861,00;97,16
2860,00;97,19
2859,00;97,21
2858,00;97,23
2857,00;97,26
2856,00;97,29
2855,00;97,32
2854,00;97,35
2853,00;97,37
2852,00;97,39
2851,00;97,41
2850,00;97,42
2849,00;97,45
2848,00;97,48
2847,00;97,51
2846,00;97,53
2845,00;97,55
2844,00;97,56
2843,00;97,57
2842,00;97,58
2841,00;97,59
2840,00;97,60
2839,00;97,62
2838,00;97,63
2837,00;97,65
2836,00;97,66
2835,00;97,67
2834,00;97,68
2833,00;97,69
2832,00;97,71
2831,00;97,73
2830,00;97,76
2829,00;97,78
2828,00;97,80
2827,00;97,81
2826,00;97,82
2825,00;97,83
2824,00;97,83
2823,00;97,85
2822,00;97,87
2821,00;97,90
2820,00;97,93
2819,00;97,95
2818,00;97,97
2817,00;97,99
2816,00;98,00
2815,00;98,02
2814,00;98,04
2813,00;98,06
2812,00;98,06
2811,00;98,07
2810,00;98,08
2809,00;98,09
2808,00;98,11
2807,00;98,13
2806,00;98,15
2805,00;98,16
2804,00;98,17
2803,00;98,17
2802,00;98,18
2801,00;98,18
2800,00;98,19
2799,00;98,20
2798,00;98,22
2797,00;98,24
2796,00;98,25
2795,00;98,26
2794,00;98,27
2793,00;98,28
2792,00;98,30
2791,00;98,32
2790,00;98,34
2789,00;98,35
2788,00;98,36
2787,00;98,37
2786,00;98,38
2785,00;98,40
2784,00;98,42
2783,00;98,43
2782,00;98,45
2781,00;98,45
2780,00;98,46
2779,00;98,47
2778,00;98,48
2777,00;98,49
2776,00;98,50
2775,00;98,50
2774,00;98,50
2773,00;98,51
2772,00;98,53
2771,00;98,54
2770,00;98,55
2769,00;98,56
2768,00;98,57
2767,00;98,58
2766,00;98,59
2765,00;98,59
2764,00;98,59
2763,00;98,59
2762,00;98,60
2761,00;98,61
2760,00;98,63
2759,00;98,64
2758,00;98,66
2757,00;98,66
2756,00;98,66
2755,00;98,66
2754,00;98,67
2753,00;98,67
2752,00;98,68
2751,00;98,68
2750,00;98,69
2749,00;98,70
2748,00;98,72
2747,00;98,74
2746,00;98,75
2745,00;98,76
2744,00;98,76
2743,00;98,75
2742,00;98,75
2741,00;98,75
2740,00;98,75
2739,00;98,75
2738,00;98,77
2737,00;98,78
2736,00;98,79
2735,00;98,79
2734,00;98,81
2733,00;98,82
2732,00;98,84
2731,00;98,85
2730,00;98,86
2729,00;98,88
2728,00;98,89
2727,00;98,89
2726,00;98,88
2725,00;98,87
2724,00;98,86
2723,00;98,85
2722,00;98,85
2721,00;98,86
2720,00;98,87
2719,00;98,88
2718,00;98,90
2717,00;98,91
2716,00;98,91
2715,00;98,92
2714,00;98,93
2713,00;98,94
2712,00;98,96
2711,00;98,96
2710,00;98,96
2709,00;98,95
2708,00;98,95
2707,00;98,95
2706,00;98,95
2705,00;98,95
2704,00;98,95
2703,00;98,96
2702,00;98,97
2701,00;98,97
2700,00;98,98
2699,00;98,99
2698,00;99,00
2697,00;99,00
2696,00;99,01
2695,00;99,01
2694,00;99,02
2693,00;99,01
2692,00;99,01
2691,00;99,00
2690,00;99,00
2689,00;99,01
2688,00;99,02
2687,00;99,01
2686,00;99,01
2685,00;99,00
2684,00;99,00
2683,00;99,00
2682,00;99,02
2681,00;99,03
2680,00;99,05
2679,00;99,06
2678,00;99,07
2677,00;99,07
2676,00;99,07
2675,00;99,06
2674,00;99,05
2673,00;99,04
2672,00;99,04
2671,00;99,04
2670,00;99,06
2669,00;99,07
2668,00;99,07
2667,00;99,08
2666,00;99,08
2665,00;99,09
2664,00;99,10
2663,00;99,11
2662,00;99,11
2661,00;99,11
2660,00;99,11
2659,00;99,10
2658,00;99,10
2657,00;99,11
2656,00;99,12
2655,00;99,12
2654,00;99,12
2653,00;99,11
2652,00;99,10
2651,00;99,10
2650,00;99,11
2649,00;99,12
2648,00;99,14
2647,00;99,14
2646,00;99,14
2645,00;99,13
2644,00;99,11
2643,00;99,11
2642,00;99,10
2641,00;99,10
2640,00;99,10
2639,00;99,10
2638,00;99,10
2637,00;99,11
2636,00;99,11
2635,00;99,10
2634,00;99,10
2633,00;99,10
2632,00;99,10
2631,00;99,11
2630,00;99,11
2629,00;99,11
2628,00;99,11
2627,00;99,11
2626,00;99,11
2625,00;99,12
2624,00;99,13
2623,00;99,14
2622,00;99,15
2621,00;99,15
2620,00;99,13
2619,00;99,11
2618,00;99,10
2617,00;99,11
2616,00;99,12
2615,00;99,13
2614,00;99,13
2613,00;99,12
2612,00;99,11
2611,00;99,10
2610,00;99,08
2609,00;99,08
2608,00;99,08
2607,00;99,10
2606,00;99,11
2605,00;99,11
2604,00;99,10
2603,00;99,10
2602,00;99,09
2601,00;99,09
2600,00;99,09
2599,00;99,08
2598,00;99,08
2597,00;99,08
2596,00;99,08
2595,00;99,08
2594,00;99,08
2593,00;99,09
2592,00;99,10
2591,00;99,12
2590,00;99,14
2589,00;99,14
2588,00;99,13
2587,00;99,12
2586,00;99,11
2585,00;99,11
2584,00;99,10
2583,00;99,10
2582,00;99,09
2581,00;99,08
2580,00;99,06
2579,00;99,05
2578,00;99,05
2577,00;99,06
2576,00;99,08
2575,00;99,10
2574,00;99,12
2573,00;99,12
2572,00;99,12
2571,00;99,11
2570,00;99,10
2569,00;99,09
2568,00;99,08
2567,00;99,07
2566,00;99,08
2565,00;99,09
2564,00;99,09
2563,00;99,09
2562,00;99,09
2561,00;99,09
2560,00;99,10
2559,00;99,10
2558,00;99,09
2557,00;99,09
2556,00;99,08
2555,00;99,07
2554,00;99,06
2553,00;99,05
2552,00;99,05
2551,00;99,06
2550,00;99,07
2549,00;99,08
2548,00;99,07
2547,00;99,05
2546,00;99,03
2545,00;99,02
2544,00;99,02
2543,00;99,03
2542,00;99,02
2541,00;99,01
2540,00;99,01
2539,00;99,01
2538,00;99,02
2537,00;99,04
2536,00;99,05
2535,00;99,05
2534,00;99,04
2533,00;99,03
2532,00;99,02
2531,00;99,01
2530,00;99,02
2529,00;99,03
2528,00;99,02
2527,00;99,00
2526,00;98,97
2525,00;98,96
2524,00;98,96
2523,00;98,97
2522,00;98,98
2521,00;98,98
2520,00;98,97
2519,00;98,94
2518,00;98,92
2517,00;98,91
2516,00;98,91
2515,00;98,93
2514,00;98,94
2513,00;98,94
2512,00;98,92
2511,00;98,90
2510,00;98,90
2509,00;98,90
2508,00;98,91
2507,00;98,93
2506,00;98,94
2505,00;98,95
2504,00;98,94
2503,00;98,92
2502,00;98,91
2501,00;98,90
2500,00;98,89
2499,00;98,88
2498,00;98,89
2497,00;98,89
2496,00;98,88
2495,00;98,88
2494,00;98,88
2493,00;98,88
2492,00;98,87
2491,00;98,84
2490,00;98,82
2489,00;98,81
2488,00;98,83
2487,00;98,85
2486,00;98,87
2485,00;98,86
2484,00;98,83
2483,00;98,80
2482,00;98,77
2481,00;98,76
2480,00;98,76
2479,00;98,77
2478,00;98,78
2477,00;98,78
2476,00;98,78
2475,00;98,78
2474,00;98,78
2473,00;98,77
2472,00;98,76
2471,00;98,76
2470,00;98,76
2469,00;98,77
2468,00;98,77
2467,00;98,76
2466,00;98,75
2465,00;98,73
2464,00;98,71
2463,00;98,69
2462,00;98,68
2461,00;98,69
2460,00;98,71
2459,00;98,73
2458,00;98,74
2457,00;98,72
2456,00;98,70
2455,00;98,69
2454,00;98,70
2453,00;98,71
2452,00;98,72
2451,00;98,72
2450,00;98,70
2449,00;98,69
2448,00;98,67
2447,00;98,67
2446,00;98,67
2445,00;98,67
2444,00;98,67
2443,00;98,67
2442,00;98,67
2441,00;98,67
2440,00;98,67
2439,00;98,65
2438,00;98,62
2437,00;98,60
2436,00;98,60
2435,00;98,60
2434,00;98,60
2433,00;98,58
2432,00;98,56
2431,00;98,55
2430,00;98,58
2429,00;98,60
2428,00;98,62
2427,00;98,61
2426,00;98,59
2425,00;98,57
2424,00;98,54
2423,00;98,52
2422,00;98,50
2421,00;98,50
2420,00;98,50
2419,00;98,51
2418,00;98,52
2417,00;98,52
2416,00;98,50
2415,00;98,49
2414,00;98,49
2413,00;98,49
2412,00;98,49
2411,00;98,47
2410,00;98,46
2409,00;98,44
2408,00;98,44
2407,00;98,44
2406,00;98,44
2405,00;98,45
2404,00;98,45
2403,00;98,44
2402,00;98,44
2401,00;98,42
2400,00;98,41
2399,00;98,40
2398,00;98,39
2397,00;98,39
2396,00;98,39
2395,00;98,40
2394,00;98,40
2393,00;98,39
2392,00;98,38
2391,00;98,37
2390,00;98,35
2389,00;98,33
2388,00;98,32
2387,00;98,32
2386,00;98,34
2385,00;98,35
2384,00;98,35
2383,00;98,33
2382,00;98,30
2381,00;98,28
2380,00;98,25
2379,00;98,23
2378,00;98,22
2377,00;98,21
2376,00;98,20
2375,00;98,18
2374,00;98,18
2373,00;98,18
2372,00;98,18
2371,00;98,20
2370,00;98,21
2369,00;98,23
2368,00;98,22
2367,00;98,20
2366,00;98,16
2365,00;98,11
2364,00;98,05
2363,00;98,02
2362,00;98,05
2361,00;98,12
2360,00;98,17
2359,00;98,18
2358,00;98,16
2357,00;98,12
2356,00;98,07
2355,00;98,03
2354,00;98,01
2353,00;97,99
2352,00;97,99
2351,00;98,00
2350,00;98,02
2349,00;98,01
2348,00;97,97
2347,00;97,94
2346,00;97,95
2345,00;97,99
2344,00;98,03
2343,00;98,04
2342,00;98,01
2341,00;97,95
2340,00;97,88
2339,00;97,85
2338,00;97,86
2337,00;97,87
2336,00;97,89
2335,00;97,92
2334,00;97,96
2333,00;97,98
2332,00;97,95
2331,00;97,89
2330,00;97,84
2329,00;97,82
2328,00;97,84
2327,00;97,87
2326,00;97,89
2325,00;97,89
2324,00;97,86
2323,00;97,83
2322,00;97,82
2321,00;97,83
2320,00;97,85
2319,00;97,86
2318,00;97,86
2317,00;97,84
2316,00;97,81
2315,00;97,78
2314,00;97,77
2313,00;97,77
2312,00;97,77
2311,00;97,77
2310,00;97,76
2309,00;97,75
2308,00;97,74
2307,00;97,72
2306,00;97,71
2305,00;97,71
2304,00;97,70
2303,00;97,69
2302,00;97,67
2301,00;97,65
2300,00;97,63
2299,00;97,62
2298,00;97,62
2297,00;97,63
2296,00;97,62
2295,00;97,61
2294,00;97,59
2293,00;97,57
2292,00;97,55
2291,00;97,53
2290,00;97,53
2289,00;97,53
2288,00;97,54
2287,00;97,53
2286,00;97,52
2285,00;97,50
2284,00;97,49
2283,00;97,47
2282,00;97,45
2281,00;97,42
2280,00;97,40
2279,00;97,37
2278,00;97,36
2277,00;97,36
2276,00;97,37
2275,00;97,40
2274,00;97,42
2273,00;97,44
2272,00;97,43
2271,00;97,40
2270,00;97,36
2269,00;97,32
2268,00;97,28
2267,00;97,25
2266,00;97,23
2265,00;97,23
2264,00;97,23
2263,00;97,24
2262,00;97,24
2261,00;97,24
2260,00;97,21
2259,00;97,17
2258,00;97,14
2257,00;97,13
2256,00;97,13
2255,00;97,14
2254,00;97,15
2253,00;97,16
2252,00;97,16
2251,00;97,17
2250,00;97,16
2249,00;97,14
2248,00;97,09
2247,00;97,05
2246,00;97,01
2245,00;96,99
2244,00;97,00
2243,00;97,03
2242,00;97,06
2241,00;97,05
2240,00;97,02
2239,00;97,00
2238,00;97,01
2237,00;97,04
2236,00;97,06
2235,00;97,04
2234,00;96,99
2233,00;96,93
2232,00;96,88
2231,00;96,85
2230,00;96,85
2229,00;96,86
2228,00;96,86
2227,00;96,87
2226,00;96,88
2225,00;96,90
2224,00;96,91
2223,00;96,90
2222,00;96,87
2221,00;96,80
2220,00;96,75
2219,00;96,72
2218,00;96,72
2217,00;96,73
2216,00;96,74
2215,00;96,74
2214,00;96,75
2213,00;96,76
2212,00;96,75
2211,00;96,72
2210,00;96,68
2209,00;96,65
2208,00;96,64
2207,00;96,64
2206,00;96,64
2205,00;96,64
2204,00;96,61
2203,00;96,59
2202,00;96,58
2201,00;96,58
2200,00;96,58
2199,00;96,59
2198,00;96,61
2197,00;96,62
2196,00;96,60
2195,00;96,56
2194,00;96,50
2193,00;96,45
2192,00;96,43
2191,00;96,44
2190,00;96,49
2189,00;96,52
2188,00;96,51
2187,00;96,44
2186,00;96,35
2185,00;96,29
2184,00;96,28
2183,00;96,33
2182,00;96,39
2181,00;96,43
2180,00;96,42
2179,00;96,38
2178,00;96,35
2177,00;96,35
2176,00;96,37
2175,00;96,40
2174,00;96,42
2173,00;96,40
2172,00;96,37
2171,00;96,35
2170,00;96,33
2169,00;96,30
2168,00;96,26
2167,00;96,22
2166,00;96,20
2165,00;96,19
2164,00;96,20
2163,00;96,23
2162,00;96,26
2161,00;96,25
2160,00;96,19
2159,00;96,12
2158,00;96,09
2157,00;96,09
2156,00;96,10
2155,00;96,10
2154,00;96,09
2153,00;96,08
2152,00;96,07
2151,00;96,08
2150,00;96,10
2149,00;96,12
2148,00;96,14
2147,00;96,15
2146,00;96,13
2145,00;96,10
2144,00;96,09
2143,00;96,10
2142,00;96,12
2141,00;96,13
2140,00;96,11
2139,00;96,08
2138,00;96,04
2137,00;96,02
2136,00;96,00
2135,00;95,98
2134,00;95,97
2133,00;95,97
2132,00;95,97
2131,00;95,97
2130,00;95,97
2129,00;95,95
2128,00;95,92
2127,00;95,91
2126,00;95,91
2125,00;95,93
2124,00;95,94
2123,00;95,95
2122,00;95,94
2121,00;95,92
2120,00;95,88
2119,00;95,86
2118,00;95,85
2117,00;95,86
2116,00;95,87
2115,00;95,89
2114,00;95,90
2113,00;95,90
2112,00;95,90
2111,00;95,93
2110,00;95,96
2109,00;95,98
2108,00;95,98
2107,00;95,97
2106,00;95,97
2105,00;95,97
2104,00;95,95
2103,00;95,92
2102,00;95,91
2101,00;95,91
2100,00;95,90
2099,00;95,88
2098,00;95,86
2097,00;95,85
2096,00;95,86
2095,00;95,88
2094,00;95,91
2093,00;95,93
2092,00;95,93
2091,00;95,93
2090,00;95,93
2089,00;95,92
2088,00;95,94
2087,00;95,98
2086,00;96,03
2085,00;96,06
2084,00;96,06
2083,00;96,04
2082,00;96,02
2081,00;96,00
2080,00;95,99
2079,00;96,01
2078,00;96,04
2077,00;96,06
2076,00;96,07
2075,00;96,08
2074,00;96,09
2073,00;96,09
2072,00;96,09
2071,00;96,09
2070,00;96,10
2069,00;96,11
2068,00;96,12
2067,00;96,13
2066,00;96,16
2065,00;96,20
2064,00;96,22
2063,00;96,20
2062,00;96,18
2061,00;96,17
2060,00;96,18
2059,00;96,21
2058,00;96,25
2057,00;96,28
2056,00;96,27
2055,00;96,25
2054,00;96,23
2053,00;96,23
2052,00;96,24
2051,00;96,28
2050,00;96,32
2049,00;96,35
2048,00;96,36
2047,00;96,37
2046,00;96,38
2045,00;96,37
2044,00;96,35
2043,00;96,35
2042,00;96,40
2041,00;96,46
2040,00;96,49
2039,00;96,48
2038,00;96,45
2037,00;96,40
2036,00;96,38
2035,00;96,40
2034,00;96,46
2033,00;96,51
2032,00;96,54
2031,00;96,56
2030,00;96,60
2029,00;96,65
2028,00;96,66
2027,00;96,66
2026,00;96,65
2025,00;96,64
2024,00;96,62
2023,00;96,61
2022,00;96,61
2021,00;96,62
2020,00;96,61
2019,00;96,60
2018,00;96,62
2017,00;96,65
2016,00;96,68
2015,00;96,71
2014,00;96,76
2013,00;96,79
2012,00;96,79
2011,00;96,77
2010,00;96,76
2009,00;96,78
2008,00;96,81
2007,00;96,85
2006,00;96,89
2005,00;96,90
2004,00;96,86
2003,00;96,82
2002,00;96,82
2001,00;96,83
2000,00;96,85
1999,00;96,87
1998,00;96,89
1997,00;96,89
1996,00;96,89
1995,00;96,89
1994,00;96,91
1993,00;96,94
1992,00;96,97
1991,00;97,01
1990,00;97,06
1989,00;97,11
1988,00;97,15
1987,00;97,18
1986,00;97,21
1985,00;97,21
1984,00;97,17
1983,00;97,12
1982,00;97,10
1981,00;97,13
1980,00;97,17
1979,00;97,22
1978,00;97,25
1977,00;97,23
1976,00;97,18
1975,00;97,14
1974,00;97,15
1973,00;97,17
1972,00;97,20
1971,00;97,23
1970,00;97,27
1969,00;97,29
1968,00;97,29
1967,00;97,27
1966,00;97,25
1965,00;97,23
1964,00;97,23
1963,00;97,24
1962,00;97,28
1961,00;97,29
1960,00;97,28
1959,00;97,28
1958,00;97,31
1957,00;97,33
1956,00;97,33
1955,00;97,34
1954,00;97,35
1953,00;97,37
1952,00;97,38
1951,00;97,40
1950,00;97,42
1949,00;97,42
1948,00;97,42
1947,00;97,44
1946,00;97,47
1945,00;97,49
1944,00;97,46
1943,00;97,43
1942,00;97,42
1941,00;97,44
1940,00;97,44
1939,00;97,44
1938,00;97,43
1937,00;97,41
1936,00;97,38
1935,00;97,37
1934,00;97,38
1933,00;97,41
1932,00;97,43
1931,00;97,45
1930,00;97,47
1929,00;97,49
1928,00;97,51
1927,00;97,53
1926,00;97,55
1925,00;97,56
1924,00;97,54
1923,00;97,52
1922,00;97,51
1921,00;97,51
1920,00;97,49
1919,00;97,49
1918,00;97,51
1917,00;97,54
1916,00;97,55
1915,00;97,55
1914,00;97,55
1913,00;97,54
1912,00;97,50
1911,00;97,47
1910,00;97,46
1909,00;97,49
1908,00;97,52
1907,00;97,54
1906,00;97,56
1905,00;97,56
1904,00;97,55
1903,00;97,54
1902,00;97,54
1901,00;97,55
1900,00;97,55
1899,00;97,55
1898,00;97,55
1897,00;97,55
1896,00;97,56
1895,00;97,56
1894,00;97,57
1893,00;97,58
1892,00;97,57
1891,00;97,57
1890,00;97,57
1889,00;97,57
1888,00;97,56
1887,00;97,55
1886,00;97,55
1885,00;97,55
1884,00;97,55
1883,00;97,56
1882,00;97,56
1881,00;97,56
1880,00;97,55
1879,00;97,55
1878,00;97,55
1877,00;97,54
1876,00;97,53
1875,00;97,53
1874,00;97,53
1873,00;97,53
1872,00;97,53
1871,00;97,53
1870,00;97,54
1869,00;97,55
1868,00;97,56
1867,00;97,56
1866,00;97,57
1865,00;97,57
1864,00;97,55
1863,00;97,55
1862,00;97,55
1861,00;97,55
1860,00;97,54
1859,00;97,51
1858,00;97,50
1857,00;97,49
1856,00;97,48
1855,00;97,49
1854,00;97,51
1853,00;97,51
1852,00;97,49
1851,00;97,47
1850,00;97,46
1849,00;97,46
1848,00;97,45
1847,00;97,45
1846,00;97,44
1845,00;97,44
1844,00;97,43
1843,00;97,44
1842,00;97,45
1841,00;97,44
1840,00;97,42
1839,00;97,40
1838,00;97,40
1837,00;97,39
1836,00;97,38
1835,00;97,37
1834,00;97,37
1833,00;97,38
1832,00;97,38
1831,00;97,39
1830,00;97,40
1829,00;97,40
1828,00;97,38
1827,00;97,36
1826,00;97,35
1825,00;97,34
1824,00;97,32
1823,00;97,30
1822,00;97,29
1821,00;97,28
1820,00;97,25
1819,00;97,23
1818,00;97,23
1817,00;97,24
1816,00;97,24
1815,00;97,23
1814,00;97,23
1813,00;97,21
1812,00;97,19
1811,00;97,16
1810,00;97,15
1809,00;97,15
1808,00;97,14
1807,00;97,13
1806,00;97,12
1805,00;97,09
1804,00;97,06
1803,00;97,03
1802,00;97,03
1801,00;97,05
1800,00;97,06
1799,00;97,05
1798,00;97,02
1797,00;96,98
1796,00;96,94
1795,00;96,92
1794,00;96,92
1793,00;96,92
1792,00;96,93
1791,00;96,92
1790,00;96,90
1789,00;96,87
1788,00;96,83
1787,00;96,80
1786,00;96,79
1785,00;96,78
1784,00;96,75
1783,00;96,72
1782,00;96,70
1781,00;96,68
1780,00;96,66
1779,00;96,64
1778,00;96,62
1777,00;96,60
1776,00;96,56
1775,00;96,53
1774,00;96,53
1773,00;96,53
1772,00;96,53
1771,00;96,52
1770,00;96,50
1769,00;96,46
1768,00;96,43
1767,00;96,41
1766,00;96,40
1765,00;96,39
1764,00;96,36
1763,00;96,33
1762,00;96,31
1761,00;96,30
1760,00;96,27
1759,00;96,24
1758,00;96,23
1757,00;96,21
1756,00;96,18
1755,00;96,14
1754,00;96,10
1753,00;96,06
1752,00;96,01
1751,00;95,98
1750,00;95,96
1749,00;95,93
1748,00;95,86
1747,00;95,80
1746,00;95,75
1745,00;95,71
1744,00;95,66
1743,00;95,62
1742,00;95,60
1741,00;95,57
1740,00;95,49
1739,00;95,38
1738,00;95,30
1737,00;95,21
1736,00;95,09
1735,00;94,94
1734,00;94,77
1733,00;94,62
1732,00;94,48
1731,00;94,36
1730,00;94,26
1729,00;94,15
1728,00;94,01
1727,00;93,88
1726,00;93,76
1725,00;93,63
1724,00;93,46
1723,00;93,30
1722,00;93,17
1721,00;93,07
1720,00;92,93
1719,00;92,74
1718,00;92,49
1717,00;92,22
1716,00;91,96
1715,00;91,75
1714,00;91,59
1713,00;91,42
1712,00;91,22
1711,00;91,01
1710,00;90,82
1709,00;90,63
1708,00;90,45
1707,00;90,24
1706,00;89,98
1705,00;89,70
1704,00;89,45
1703,00;89,26
1702,00;89,12
1701,00;88,88
1700,00;88,48
1699,00;88,10
1698,00;87,86
1697,00;87,62
1696,00;87,26
1695,00;86,88
1694,00;86,60
1693,00;86,40
1692,00;86,18
1691,00;85,92
1690,00;85,62
1689,00;85,32
1688,00;85,05
1687,00;84,81
1686,00;84,60
1685,00;84,26
1684,00;83,70
1683,00;83,21
1682,00;82,92
1681,00;82,67
1680,00;82,39
1679,00;82,12
1678,00;81,91
1677,00;81,69
1676,00;81,35
1675,00;80,91
1674,00;80,51
1673,00;80,23
1672,00;79,99
1671,00;79,68
1670,00;79,28
1669,00;78,81
1668,00;78,39
1667,00;78,08
1666,00;77,86
1665,00;77,66
1664,00;77,37
1663,00;76,97
1662,00;76,55
1661,00;76,20
1660,00;75,90
1659,00;75,64
1658,00;75,41
1657,00;75,23
1656,00;75,06
1655,00;74,86
1654,00;74,47
1653,00;73,79
1652,00;73,26
1651,00;73,09
1650,00;73,07
1649,00;73,03
1648,00;72,84
1647,00;72,46
1646,00;72,09
1645,00;71,88
1644,00;71,75
1643,00;71,64
1642,00;71,55
1641,00;71,47
1640,00;71,41
1639,00;71,37
1638,00;71,35
1637,00;71,32
1636,00;71,23
1635,00;71,15
1634,00;71,17
1633,00;71,26
1632,00;71,37
1631,00;71,49
1630,00;71,64
1629,00;71,83
1628,00;72,01
1627,00;72,19
1626,00;72,39
1625,00;72,63
1624,00;72,91
1623,00;73,22
1622,00;73,54
1621,00;73,84
1620,00;74,11
1619,00;74,37
1618,00;74,68
1617,00;75,11
1616,00;75,57
1615,00;75,97
1614,00;76,32
1613,00;76,66
1612,00;77,00
1611,00;77,34
1610,00;77,71
1609,00;78,09
1608,00;78,46
1607,00;78,82
1606,00;79,17
1605,00;79,52
1604,00;79,87
1603,00;80,21
1602,00;80,55
1601,00;80,87
1600,00;81,19
1599,00;81,49
1598,00;81,77
1597,00;82,04
1596,00;82,32
1595,00;82,60
1594,00;82,88
1593,00;83,15
1592,00;83,42
1591,00;83,66
1590,00;83,89
1589,00;84,11
1588,00;84,33
1587,00;84,53
1586,00;84,73
1585,00;84,93
1584,00;85,13
1583,00;85,33
1582,00;85,51
1581,00;85,69
1580,00;85,86
1579,00;86,01
1578,00;86,13
1577,00;86,27
1576,00;86,46
1575,00;86,65
1574,00;86,81
1573,00;86,95
1572,00;87,08
1571,00;87,23
1570,00;87,37
1569,00;87,50
1568,00;87,61
1567,00;87,69
1566,00;87,78
1565,00;87,88
1564,00;87,99
1563,00;88,07
1562,00;88,14
1561,00;88,24
1560,00;88,41
1559,00;88,62
1558,00;88,77
1557,00;88,80
1556,00;88,81
1555,00;88,83
1554,00;88,87
1553,00;88,92
1552,00;88,99
1551,00;89,05
1550,00;89,11
1549,00;89,17
1548,00;89,24
1547,00;89,31
1546,00;89,36
1545,00;89,42
1544,00;89,49
1543,00;89,56
1542,00;89,62
1541,00;89,68
1540,00;89,76
1539,00;89,82
1538,00;89,82
1537,00;89,84
1536,00;89,88
1535,00;89,93
1534,00;89,97
1533,00;90,02
1532,00;90,07
1531,00;90,10
1530,00;90,13
1529,00;90,17
1528,00;90,22
1527,00;90,28
1526,00;90,34
1525,00;90,38
1524,00;90,41
1523,00;90,42
1522,00;90,43
1521,00;90,48
1520,00;90,55
1519,00;90,60
1518,00;90,61
1517,00;90,62
1516,00;90,63
1515,00;90,65
1514,00;90,65
1513,00;90,65
1512,00;90,66
1511,00;90,67
1510,00;90,69
1509,00;90,70
1508,00;90,74
1507,00;90,83
1506,00;90,90
1505,00;90,91
1504,00;90,91
1503,00;90,91
1502,00;90,93
1501,00;90,96
1500,00;91,01
1499,00;91,06
1498,00;91,08
1497,00;91,08
1496,00;91,08
1495,00;91,09
1494,00;91,09
1493,00;91,11
1492,00;91,13
1491,00;91,15
1490,00;91,16
1489,00;91,17
1488,00;91,20
1487,00;91,22
1486,00;91,23
1485,00;91,23
1484,00;91,24
1483,00;91,25
1482,00;91,27
1481,00;91,28
1480,00;91,30
1479,00;91,32
1478,00;91,34
1477,00;91,36
1476,00;91,39
1475,00;91,42
1474,00;91,42
1473,00;91,42
1472,00;91,43
1471,00;91,45
1470,00;91,45
1469,00;91,46
1468,00;91,48
1467,00;91,51
1466,00;91,54
1465,00;91,57
1464,00;91,59
1463,00;91,60
1462,00;91,59
1461,00;91,59
1460,00;91,60
1459,00;91,61
1458,00;91,60
1457,00;91,61
1456,00;91,64
1455,00;91,66
1454,00;91,67
1453,00;91,67
1452,00;91,67
1451,00;91,69
1450,00;91,71
1449,00;91,72
1448,00;91,72
1447,00;91,71
1446,00;91,71
1445,00;91,71
1444,00;91,72
1443,00;91,73
1442,00;91,74
1441,00;91,75
1440,00;91,76
1439,00;91,77
1438,00;91,78
1437,00;91,79
1436,00;91,79
1435,00;91,79
1434,00;91,79
1433,00;91,79
1432,00;91,81
1431,00;91,81
1430,00;91,80
1429,00;91,80
1428,00;91,80
1427,00;91,82
1426,00;91,83
1425,00;91,84
1424,00;91,83
1423,00;91,83
1422,00;91,81
1421,00;91,80
1420,00;91,81
1419,00;91,82
1418,00;91,82
1417,00;91,82
1416,00;91,82
1415,00;91,82
1414,00;91,83
1413,00;91,83
1412,00;91,82
1411,00;91,82
1410,00;91,82
1409,00;91,83
1408,00;91,83
1407,00;91,84
1406,00;91,83
1405,00;91,83
1404,00;91,83
1403,00;91,84
1402,00;91,85
1401,00;91,86
1400,00;91,87
1399,00;91,88
1398,00;91,87
1397,00;91,86
1396,00;91,86
1395,00;91,86
1394,00;91,87
1393,00;91,88
1392,00;91,90
1391,00;91,92
1390,00;91,93
1389,00;91,93
1388,00;91,93
1387,00;91,95
1386,00;91,98
1385,00;92,01
1384,00;92,05
1383,00;92,09
1382,00;92,11
1381,00;92,13
1380,00;92,14
1379,00;92,16
1378,00;92,18
1377,00;92,20
1376,00;92,21
1375,00;92,23
1374,00;92,25
1373,00;92,27
1372,00;92,27
1371,00;92,26
1370,00;92,25
1369,00;92,25
1368,00;92,26
1367,00;92,28
1366,00;92,29
1365,00;92,27
1364,00;92,23
1363,00;92,20
1362,00;92,19
1361,00;92,20
1360,00;92,20
1359,00;92,20
1358,00;92,18
1357,00;92,17
1356,00;92,17
1355,00;92,18
1354,00;92,19
1353,00;92,19
1352,00;92,18
1351,00;92,15
1350,00;92,12
1349,00;92,10
1348,00;92,08
1347,00;92,07
1346,00;92,05
1345,00;92,03
1344,00;92,00
1343,00;91,97
1342,00;91,93
1341,00;91,89
1340,00;91,85
1339,00;91,84
1338,00;91,84
1337,00;91,85
1336,00;91,86
1335,00;91,87
1334,00;91,88
1333,00;91,88
1332,00;91,88
1331,00;91,87
1330,00;91,86
1329,00;91,86
1328,00;91,88
1327,00;91,89
1326,00;91,89
1325,00;91,88
1324,00;91,86
1323,00;91,84
1322,00;91,82
1321,00;91,80
1320,00;91,79
1319,00;91,80
1318,00;91,81
1317,00;91,82
1316,00;91,82
1315,00;91,80
1314,00;91,79
1313,00;91,78
1312,00;91,79
1311,00;91,79
1310,00;91,79
1309,00;91,78
1308,00;91,78
1307,00;91,78
1306,00;91,78
1305,00;91,79
1304,00;91,79
1303,00;91,79
1302,00;91,79
1301,00;91,78
1300,00;91,77
1299,00;91,76
1298,00;91,75
1297,00;91,75
1296,00;91,75
1295,00;91,76
1294,00;91,76
1293,00;91,76
1292,00;91,76
1291,00;91,76
1290,00;91,76
1289,00;91,76
1288,00;91,77
1287,00;91,77
1286,00;91,76
1285,00;91,75
1284,00;91,74
1283,00;91,74
1282,00;91,73
1281,00;91,73
1280,00;91,73
1279,00;91,73
1278,00;91,74
1277,00;91,74
1276,00;91,75
1275,00;91,77
1274,00;91,77
1273,00;91,77
1272,00;91,76
1271,00;91,75
1270,00;91,74
1269,00;91,73
1268,00;91,73
1267,00;91,73
1266,00;91,72
1265,00;91,72
1264,00;91,72
1263,00;91,72
1262,00;91,72
1261,00;91,72
1260,00;91,71
1259,00;91,70
1258,00;91,70
1257,00;91,69
1256,00;91,68
1255,00;91,67
1254,00;91,66
1253,00;91,66
1252,00;91,68
1251,00;91,69
1250,00;91,70
1249,00;91,71
1248,00;91,71
1247,00;91,72
1246,00;91,73
1245,00;91,74
1244,00;91,76
1243,00;91,77
1242,00;91,78
1241,00;91,80
1240,00;91,82
1239,00;91,84
1238,00;91,87
1237,00;91,91
1236,00;91,95
1235,00;91,98
1234,00;92,02
1233,00;92,06
1232,00;92,09
1231,00;92,11
1230,00;92,13
1229,00;92,14
1228,00;92,14
1227,00;92,13
1226,00;92,11
1225,00;92,07
1224,00;92,03
1223,00;92,00
1222,00;92,00
1221,00;92,02
1220,00;92,08
1219,00;92,16
1218,00;92,21
1217,00;92,22
1216,00;92,20
1215,00;92,16
1214,00;92,11
1213,00;92,08
1212,00;92,06
1211,00;92,07
1210,00;92,08
1209,00;92,08
1208,00;92,09
1207,00;92,09
1206,00;92,10
1205,00;92,10
1204,00;92,08
1203,00;92,05
1202,00;92,02
1201,00;91,99
1200,00;91,97
1199,00;91,95
1198,00;91,93
1197,00;91,90
1196,00;91,87
1195,00;91,85
1194,00;91,83
1193,00;91,82
1192,00;91,81
1191,00;91,80
1190,00;91,78
1189,00;91,77
1188,00;91,77
1187,00;91,76
1186,00;91,75
1185,00;91,73
1184,00;91,71
1183,00;91,71
1182,00;91,72
1181,00;91,73
1180,00;91,72
1179,00;91,71
1178,00;91,69
1177,00;91,68
1176,00;91,69
1175,00;91,70
1174,00;91,70
1173,00;91,69
1172,00;91,68
1171,00;91,68
1170,00;91,68
1169,00;91,68
1168,00;91,67
1167,00;91,67
1166,00;91,66
1165,00;91,67
1164,00;91,67
1163,00;91,68
1162,00;91,68
1161,00;91,68
1160,00;91,67
1159,00;91,66
1158,00;91,64
1157,00;91,63
1156,00;91,62
1155,00;91,63
1154,00;91,65
1153,00;91,65
1152,00;91,65
1151,00;91,64
1150,00;91,64
1149,00;91,64
1148,00;91,62
1147,00;91,61
1146,00;91,59
1145,00;91,58
1144,00;91,59
1143,00;91,61
1142,00;91,64
1141,00;91,66
1140,00;91,67
1139,00;91,67
1138,00;91,66
1137,00;91,64
1136,00;91,62
1135,00;91,62
1134,00;91,61
1133,00;91,61
1132,00;91,60
1131,00;91,58
1130,00;91,57
1129,00;91,57
1128,00;91,58
1127,00;91,60
1126,00;91,61
1125,00;91,62
1124,00;91,63
1123,00;91,63
1122,00;91,63
1121,00;91,61
1120,00;91,60
1119,00;91,60
1118,00;91,60
1117,00;91,60
1116,00;91,60
1115,00;91,60
1114,00;91,61
1113,00;91,61
1112,00;91,60
1111,00;91,58
1110,00;91,55
1109,00;91,51
1108,00;91,47
1107,00;91,45
1106,00;91,45
1105,00;91,45
1104,00;91,45
1103,00;91,44
1102,00;91,44
1101,00;91,44
1100,00;91,45
1099,00;91,46
1098,00;91,46
1097,00;91,46
1096,00;91,46
1095,00;91,46
1094,00;91,45
1093,00;91,43
1092,00;91,41
1091,00;91,40
1090,00;91,38
1089,00;91,37
1088,00;91,38
1087,00;91,38
1086,00;91,38
1085,00;91,36
1084,00;91,33
1083,00;91,31
1082,00;91,30
1081,00;91,30
1080,00;91,30
1079,00;91,30
1078,00;91,29
1077,00;91,28
1076,00;91,29
1075,00;91,32
1074,00;91,33
1073,00;91,30
1072,00;91,25
1071,00;91,21
1070,00;91,20
1069,00;91,22
1068,00;91,25
1067,00;91,26
1066,00;91,27
1065,00;91,27
1064,00;91,25
1063,00;91,20
1062,00;91,14
1061,00;91,09
1060,00;91,07
1059,00;91,07
1058,00;91,07
1057,00;91,06
1056,00;91,04
1055,00;91,02
1054,00;91,00
1053,00;90,99
1052,00;90,98
1051,00;90,98
1050,00;90,99
1049,00;90,98
1048,00;90,96
1047,00;90,93
1046,00;90,90
1045,00;90,89
1044,00;90,88
1043,00;90,87
1042,00;90,85
1041,00;90,83
1040,00;90,82
1039,00;90,83
1038,00;90,84
1037,00;90,83
1036,00;90,80
1035,00;90,78
1034,00;90,76
1033,00;90,74
1032,00;90,73
1031,00;90,72
1030,00;90,71
1029,00;90,70
1028,00;90,68
1027,00;90,67
1026,00;90,66
1025,00;90,65
1024,00;90,62
1023,00;90,58
1022,00;90,55
1021,00;90,54
1020,00;90,53
1019,00;90,51
1018,00;90,48
1017,00;90,44
1016,00;90,40
1015,00;90,37
1014,00;90,34
1013,00;90,32
1012,00;90,30
1011,00;90,29
1010,00;90,27
1009,00;90,25
1008,00;90,23
1007,00;90,21
1006,00;90,18
1005,00;90,14
1004,00;90,11
1003,00;90,07
1002,00;90,04
1001,00;90,00
1000,00;89,97
999,00;89,95
998,00;89,93
997,00;89,90
996,00;89,86
995,00;89,84
994,00;89,82
993,00;89,80
992,00;89,77
991,00;89,72
990,00;89,68
989,00;89,63
988,00;89,59
987,00;89,54
986,00;89,50
985,00;89,45
984,00;89,40
983,00;89,37
982,00;89,33
981,00;89,30
980,00;89,25
979,00;89,20
978,00;89,12
977,00;89,05
976,00;89,00
975,00;88,96
974,00;88,94
973,00;88,91
972,00;88,88
971,00;88,85
970,00;88,80
969,00;88,74
968,00;88,68
967,00;88,61
966,00;88,55
965,00;88,50
964,00;88,45
963,00;88,40
962,00;88,35
961,00;88,27
960,00;88,19
959,00;88,11
958,00;88,05
957,00;88,00
956,00;87,96
955,00;87,91
954,00;87,85
953,00;87,77
952,00;87,69
951,00;87,62
950,00;87,54
949,00;87,47
948,00;87,40
947,00;87,33
946,00;87,27
945,00;87,21
944,00;87,14
943,00;87,06
942,00;86,95
941,00;86,85
940,00;86,74
939,00;86,65
938,00;86,54
937,00;86,43
936,00;86,30
935,00;86,18
934,00;86,07
933,00;85,96
932,00;85,84
931,00;85,71
930,00;85,56
929,00;85,41
928,00;85,25
927,00;85,07
926,00;84,90
925,00;84,71
924,00;84,53
923,00;84,34
922,00;84,14
921,00;83,92
920,00;83,70
919,00;83,48
918,00;83,27
917,00;83,07
916,00;82,88
915,00;82,70
914,00;82,55
913,00;82,41
912,00;82,27
911,00;82,13
910,00;82,02
909,00;81,92
908,00;81,82
907,00;81,72
906,00;81,63
905,00;81,53
904,00;81,44
903,00;81,35
902,00;81,26
901,00;81,18
900,00;81,09
899,00;81,02
898,00;80,95
897,00;80,87
896,00;80,78
895,00;80,70
894,00;80,63
893,00;80,56
892,00;80,47
891,00;80,36
890,00;80,24
889,00;80,11
888,00;79,98
887,00;79,86
886,00;79,75
885,00;79,65
884,00;79,53
883,00;79,41
882,00;79,27
881,00;79,13
880,00;78,98
879,00;78,83
878,00;78,69
877,00;78,55
876,00;78,41
875,00;78,27
874,00;78,14
873,00;78,00
872,00;77,84
871,00;77,68
870,00;77,53
869,00;77,36
868,00;77,17
867,00;76,99
866,00;76,84
865,00;76,69
864,00;76,53
863,00;76,36
862,00;76,20
861,00;76,05
860,00;75,89
859,00;75,73
858,00;75,59
857,00;75,43
856,00;75,23
855,00;75,02
854,00;74,82
853,00;74,65
852,00;74,50
851,00;74,36
850,00;74,22
849,00;74,05
848,00;73,87
847,00;73,68
846,00;73,49
845,00;73,29
844,00;73,08
843,00;72,88
842,00;72,69
841,00;72,51
840,00;72,33
839,00;72,17
838,00;72,04
837,00;71,88
836,00;71,68
835,00;71,48
834,00;71,31
833,00;71,16
832,00;70,99
831,00;70,81
830,00;70,61
829,00;70,40
828,00;70,18
827,00;69,99
826,00;69,83
825,00;69,67
824,00;69,48
823,00;69,28
822,00;69,08
821,00;68,87
820,00;68,67
819,00;68,52
818,00;68,39
817,00;68,24
816,00;68,04
815,00;67,83
814,00;67,64
813,00;67,45
812,00;67,26
811,00;67,06
810,00;66,89
809,00;66,73
808,00;66,55
807,00;66,37
806,00;66,20
805,00;66,02
804,00;65,83
803,00;65,65
802,00;65,48
801,00;65,32
800,00;65,12
799,00;64,93
798,00;64,75
797,00;64,56
796,00;64,36
795,00;64,17
794,00;64,01
793,00;63,84
792,00;63,66
791,00;63,50
790,00;63,36
789,00;63,19
788,00;62,98
787,00;62,77
786,00;62,58
785,00;62,40
784,00;62,21
783,00;62,03
782,00;61,88
781,00;61,73
780,00;61,54
779,00;61,35
778,00;61,17
777,00;61,00
776,00;60,80
775,00;60,62
774,00;60,46
773,00;60,29
772,00;60,09
771,00;59,90
770,00;59,74
769,00;59,58
768,00;59,41
767,00;59,23
766,00;59,06
765,00;58,88
764,00;58,68
763,00;58,51
762,00;58,36
761,00;58,19
760,00;57,98
759,00;57,77
758,00;57,57
757,00;57,39
756,00;57,22
755,00;57,07
754,00;56,94
753,00;56,80
752,00;56,63
751,00;56,46
750,00;56,30
749,00;56,13
748,00;55,93
747,00;55,74
746,00;55,58
745,00;55,41
744,00;55,21
743,00;55,03
742,00;54,89
741,00;54,73
740,00;54,55
739,00;54,37
738,00;54,21
737,00;54,02
736,00;53,80
735,00;53,59
734,00;53,43
733,00;53,30
732,00;53,16
731,00;53,02
730,00;52,90
729,00;52,74
728,00;52,55
727,00;52,37
726,00;52,24
725,00;52,10
724,00;51,94
723,00;51,77
722,00;51,61
721,00;51,43
720,00;51,24
719,00;51,06
718,00;50,92
717,00;50,78
716,00;50,60
715,00;50,43
714,00;50,27
713,00;50,10
712,00;49,93
711,00;49,79
710,00;49,69
709,00;49,55
708,00;49,36
707,00;49,17
706,00;49,02
705,00;48,89
704,00;48,75
703,00;48,60
702,00;48,47
701,00;48,31
700,00;48,12
699,00;47,96
698,00;47,84
697,00;47,72
696,00;47,56
695,00;47,39
694,00;47,24
693,00;47,07
692,00;46,89
691,00;46,74
690,00;46,64
689,00;46,54
688,00;46,39
687,00;46,24
686,00;46,10
685,00;45,93
684,00;45,72
683,00;45,57
682,00;45,50
681,00;45,43
680,00;45,30
679,00;45,17
678,00;45,07
677,00;44,94
676,00;44,75
675,00;44,56
674,00;44,43
673,00;44,29
672,00;44,13
671,00;44,00
670,00;43,91
669,00;43,75
668,00;43,46
667,00;43,29
666,00;43,27
665,00;43,21
664,00;43,05
663,00;42,91
662,00;42,83
661,00;42,75
660,00;42,61
659,00;42,48
658,00;42,40
657,00;42,30
656,00;42,13
655,00;42,00
654,00;41,97
653,00;41,93
652,00;41,81
651,00;41,68
650,00;41,59
649,00;41,45
648,00;41,26
647,00;41,16
646,00;41,18
645,00;41,16
644,00;41,02
643,00;40,91
642,00;40,92
641,00;40,87
640,00;40,64
639,00;40,42
638,00;40,36
637,00;40,29
636,00;40,10
635,00;39,96
634,00;40,02
633,00;40,11
632,00;40,06
631,00;39,98
630,00;39,97
629,00;39,88
628,00;39,57
627,00;39,25
626,00;39,06
625,00;38,83
624,00;38,51
623,00;38,43
622,00;38,74
621,00;39,06
620,00;39,05
619,00;38,96
618,00;39,05
617,00;39,07
616,00;38,74
615,00;38,33
614,00;38,06
613,00;37,69
612,00;37,18
611,00;37,00
610,00;37,27
609,00;37,45
608,00;37,20
607,00;36,92
606,00;36,94
605,00;36,99
604,00;36,86
603,00;36,88
602,00;37,22
601,00;37,46
600,00;37,33
