nm; A
700,000000; -0,038064
699,000000; -0,037988
698,000000; -0,037884
697,000000; -0,037813
696,000000; -0,037701
695,000000; -0,037646
694,000000; -0,037510
693,000000; -0,037383
692,000000; -0,037343
691,000000; -0,037267
690,000000; -0,037211
689,000000; -0,037140
688,000000; -0,037020
687,000000; -0,036912
686,000000; -0,036880
685,000000; -0,036761
684,000000; -0,036681
683,000000; -0,036745
682,000000; -0,036749
681,000000; -0,036677
680,000000; -0,036629
679,000000; -0,036561
678,000000; -0,036457
677,000000; -0,036429
676,000000; -0,036397
675,000000; -0,036345
674,000000; -0,036190
673,000000; -0,036130
672,000000; -0,036074
671,000000; -0,035978
670,000000; -0,035894
669,000000; -0,035778
668,000000; -0,035766
667,000000; -0,035618
666,000000; -0,035522
665,000000; -0,035438
664,000000; -0,035394
663,000000; -0,035378
662,000000; -0,035254
661,000000; -0,035153
660,000000; -0,035089
659,000000; -0,035013
658,000000; -0,034977
657,000000; -0,034873
656,000000; -0,034845
655,000000; -0,034801
654,000000; -0,034705
653,000000; -0,034608
652,000000; -0,034568
651,000000; -0,034516
650,000000; -0,034372
649,000000; -0,034344
648,000000; -0,034291
647,000000; -0,034251
646,000000; -0,034175
645,000000; -0,034151
644,000000; -0,034127
643,000000; -0,034051
642,000000; -0,033982
641,000000; -0,033958
640,000000; -0,033846
639,000000; -0,033842
638,000000; -0,033781
637,000000; -0,033685
636,000000; -0,033581
635,000000; -0,033564
634,000000; -0,033492
633,000000; -0,033420
632,000000; -0,033339
631,000000; -0,033275
630,000000; -0,033287
629,000000; -0,033146
628,000000; -0,033074
627,000000; -0,033070
626,000000; -0,033025
625,000000; -0,032945
624,000000; -0,032893
623,000000; -0,032864
622,000000; -0,032780
621,000000; -0,032740
620,000000; -0,032659
619,000000; -0,032607
618,000000; -0,032466
617,000000; -0,032393
616,000000; -0,032357
615,000000; -0,032240
614,000000; -0,032135
613,000000; -0,032026
612,000000; -0,031958
611,000000; -0,031836
610,000000; -0,031744
609,000000; -0,031631
608,000000; -0,031473
607,000000; -0,031368
606,000000; -0,031227
605,000000; -0,031065
604,000000; -0,030915
603,000000; -0,030745
602,000000; -0,030604
601,000000; -0,030357
600,000000; -0,030142
599,000000; -0,029956
598,000000; -0,029712
597,000000; -0,029453
596,000000; -0,029242
595,000000; -0,028998
594,000000; -0,028714
593,000000; -0,028498
592,000000; -0,028177
591,000000; -0,027949
590,000000; -0,027639
589,000000; -0,027366
588,000000; -0,027121
587,000000; -0,026815
586,000000; -0,026611
585,000000; -0,026386
584,000000; -0,026145
583,000000; -0,025920
582,000000; -0,025744
581,000000; -0,025593
580,000000; -0,025416
579,000000; -0,025314
578,000000; -0,025249
577,000000; -0,025113
576,000000; -0,025097
575,000000; -0,025113
574,000000; -0,025064
573,000000; -0,025109
572,000000; -0,025080
571,000000; -0,025183
570,000000; -0,025179
569,000000; -0,025265
568,000000; -0,025302
567,000000; -0,025371
566,000000; -0,025470
565,000000; -0,025539
564,000000; -0,025617
563,000000; -0,025719
562,000000; -0,025777
561,000000; -0,025855
560,000000; -0,025879
559,000000; -0,025916
558,000000; -0,026145
557,000000; -0,026210
556,000000; -0,026284
555,000000; -0,026353
554,000000; -0,026415
553,000000; -0,026505
552,000000; -0,026452
551,000000; -0,026525
550,000000; -0,026615
549,000000; -0,026676
548,000000; -0,026754
547,000000; -0,026709
546,000000; -0,026693
545,000000; -0,026713
544,000000; -0,026639
543,000000; -0,026590
542,000000; -0,026607
541,000000; -0,026460
540,000000; -0,026509
539,000000; -0,026407
538,000000; -0,026358
537,000000; -0,026349
536,000000; -0,026349
535,000000; -0,026284
534,000000; -0,026251
533,000000; -0,026174
532,000000; -0,026206
531,000000; -0,026153
530,000000; -0,026116
529,000000; -0,026006
528,000000; -0,026067
527,000000; -0,026026
526,000000; -0,025945
525,000000; -0,025932
524,000000; -0,025834
523,000000; -0,025842
522,000000; -0,025801
521,000000; -0,025765
520,000000; -0,025707
519,000000; -0,025670
518,000000; -0,025634
517,000000; -0,025560
516,000000; -0,025515
515,000000; -0,025462
514,000000; -0,025441
513,000000; -0,025376
512,000000; -0,025335
511,000000; -0,025261
510,000000; -0,025195
509,000000; -0,025113
508,000000; -0,025109
507,000000; -0,025039
506,000000; -0,024929
505,000000; -0,024908
504,000000; -0,024744
503,000000; -0,024752
502,000000; -0,024625
501,000000; -0,024601
500,000000; -0,024506
499,000000; -0,024465
498,000000; -0,024424
497,000000; -0,024321
496,000000; -0,024215
495,000000; -0,024215
494,000000; -0,024153
493,000000; -0,024042
492,000000; -0,023976
491,000000; -0,023923
490,000000; -0,023894
489,000000; -0,023783
488,000000; -0,023730
487,000000; -0,023586
486,000000; -0,023508
485,000000; -0,023499
484,000000; -0,023355
483,000000; -0,023273
482,000000; -0,023158
481,000000; -0,023051
480,000000; -0,022989
479,000000; -0,022878
478,000000; -0,022799
477,000000; -0,022696
476,000000; -0,022589
475,000000; -0,022544
474,000000; -0,022494
473,000000; -0,022395
472,000000; -0,022272
471,000000; -0,022156
470,000000; -0,022065
469,000000; -0,021966
468,000000; -0,021900
467,000000; -0,021958
466,000000; -0,021900
465,000000; -0,021710
464,000000; -0,021652
463,000000; -0,021537
462,000000; -0,021450
461,000000; -0,021322
460,000000; -0,021243
459,000000; -0,021156
458,000000; -0,021016
457,000000; -0,020871
456,000000; -0,020618
455,000000; -0,020568
454,000000; -0,020370
453,000000; -0,020137
452,000000; -0,019897
451,000000; -0,019677
450,000000; -0,019428
449,000000; -0,019170
448,000000; -0,019025
447,000000; -0,018667
446,000000; -0,018409
445,000000; -0,018151
444,000000; -0,018022
443,000000; -0,017822
442,000000; -0,017697
441,000000; -0,017472
440,000000; -0,017200
439,000000; -0,017125
438,000000; -0,017004
437,000000; -0,016958
436,000000; -0,016971
435,000000; -0,016858
434,000000; -0,016845
433,000000; -0,016812
432,000000; -0,016799
431,000000; -0,016829
430,000000; -0,016904
429,000000; -0,016862
428,000000; -0,016854
427,000000; -0,017021
426,000000; -0,017071
425,000000; -0,017121
424,000000; -0,017121
423,000000; -0,017075
422,000000; -0,017179
421,000000; -0,017250
420,000000; -0,017305
419,000000; -0,017280
418,000000; -0,017413
417,000000; -0,017422
416,000000; -0,017451
415,000000; -0,017405
414,000000; -0,017417
413,000000; -0,017396
412,000000; -0,017388
411,000000; -0,017351
410,000000; -0,017342
409,000000; -0,017363
408,000000; -0,017305
407,000000; -0,017367
406,000000; -0,017430
405,000000; -0,017313
404,000000; -0,017371
403,000000; -0,017317
402,000000; -0,017334
401,000000; -0,017346
400,000000; -0,017351
399,000000; -0,017371
398,000000; -0,017367
397,000000; -0,017351
396,000000; -0,017334
395,000000; -0,017371
394,000000; -0,017313
393,000000; -0,017413
392,000000; -0,017271
391,000000; -0,017392
390,000000; -0,017380
389,000000; -0,017455
388,000000; -0,017505
387,000000; -0,017371
386,000000; -0,017451
385,000000; -0,017451
384,000000; -0,018788
383,000000; -0,019511
382,000000; -0,019640
381,000000; -0,019582
380,000000; -0,019698
379,000000; -0,019424
378,000000; -0,019606
377,000000; -0,019511
376,000000; -0,019233
375,000000; -0,019204
374,000000; -0,018867
373,000000; -0,018605
372,000000; -0,018563
371,000000; -0,018684
370,000000; -0,018172
369,000000; -0,018039
368,000000; -0,018043
367,000000; -0,018005
366,000000; -0,017843
365,000000; -0,018009
364,000000; -0,017772
363,000000; -0,017718
362,000000; -0,017734
361,000000; -0,017626
360,000000; -0,017630
359,000000; -0,017476
358,000000; -0,017359
357,000000; -0,017292
356,000000; -0,017179
355,000000; -0,017351
354,000000; -0,017154
353,000000; -0,016774
352,000000; -0,016720
351,000000; -0,016507
350,000000; -0,016302
349,000000; -0,016126
348,000000; -0,015934
347,000000; -0,015804
346,000000; -0,015620
345,000000; -0,015268
344,000000; -0,015284
343,000000; -0,015339
342,000000; -0,015460
341,000000; -0,015377
340,000000; -0,015418
339,000000; -0,015565
338,000000; -0,015716
337,000000; -0,015909
336,000000; -0,015955
335,000000; -0,016168
334,000000; -0,016248
333,000000; -0,016620
332,000000; -0,016699
331,000000; -0,016820
330,000000; -0,017058
329,000000; -0,016933
328,000000; -0,016971
327,000000; -0,020519
326,000000; -0,020891
325,000000; -0,020883
324,000000; -0,021396
323,000000; -0,021454
322,000000; -0,021764
321,000000; -0,021900
320,000000; -0,022156
319,000000; -0,022498
318,000000; -0,022779
317,000000; -0,022845
316,000000; -0,023294
315,000000; -0,023454
314,000000; -0,023606
313,000000; -0,023980
312,000000; -0,024350
311,000000; -0,024551
310,000000; -0,024658
309,000000; -0,025048
308,000000; -0,025208
307,000000; -0,025523
306,000000; -0,025654
305,000000; -0,025781
304,000000; -0,026010
303,000000; -0,026243
302,000000; -0,026419
301,000000; -0,026713
300,000000; -0,026860
299,000000; -0,026884
298,000000; -0,027089
297,000000; -0,027178
296,000000; -0,027227
295,000000; -0,027374
294,000000; -0,027488
293,000000; -0,027684
292,000000; -0,027782
291,000000; -0,027826
290,000000; -0,027989
289,000000; -0,028189
288,000000; -0,028331
287,000000; -0,028640
286,000000; -0,028697
285,000000; -0,028872
284,000000; -0,029270
283,000000; -0,029477
282,000000; -0,029700
281,000000; -0,029765
280,000000; -0,030037
279,000000; -0,030308
278,000000; -0,030575
277,000000; -0,030903
276,000000; -0,031275
275,000000; -0,031711
274,000000; -0,031853
273,000000; -0,032280
272,000000; -0,032570
271,000000; -0,032969
270,000000; -0,033408
269,000000; -0,033838
268,000000; -0,034175
267,000000; -0,034560
266,000000; -0,034977
265,000000; -0,035302
264,000000; -0,035718
263,000000; -0,036218
262,000000; -0,036521
261,000000; -0,037104
260,000000; -0,037578
259,000000; -0,037984
258,000000; -0,038509
257,000000; -0,039033
256,000000; -0,039589
255,000000; -0,040112
254,000000; -0,040780
253,000000; -0,041306
252,000000; -0,041878
251,000000; -0,042812
250,000000; -0,043677
249,000000; -0,044669
248,000000; -0,045640
247,000000; -0,046659
246,000000; -0,047637
245,000000; -0,048764
244,000000; -0,049892
243,000000; -0,050986
242,000000; -0,052086
241,000000; -0,053182
240,000000; -0,054372
239,000000; -0,055493
238,000000; -0,056672
237,000000; -0,057837
236,000000; -0,059245
235,000000; -0,060467
234,000000; -0,061788
233,000000; -0,063014
232,000000; -0,064319
231,000000; -0,065591
230,000000; -0,067008
229,000000; -0,068290
228,000000; -0,069531
227,000000; -0,070721
226,000000; -0,071937
225,000000; -0,073054
224,000000; -0,074330
223,000000; -0,075430
222,000000; -0,076797
221,000000; -0,078000
220,000000; -0,079467
219,000000; -0,081005
218,000000; -0,082513
217,000000; -0,084129
216,000000; -0,085744
215,000000; -0,087348
214,000000; -0,089007
213,000000; -0,090861
212,000000; -0,092707
211,000000; -0,094377
210,000000; -0,096215
209,000000; -0,098239
208,000000; -0,100191
207,000000; -0,102070
206,000000; -0,104429
205,000000; -0,107142
204,000000; -0,109666
203,000000; -0,111964
202,000000; -0,115018
201,000000; -0,118377
200,000000; -0,121271
199,000000; -0,124012
198,000000; -0,126797
197,000000; -0,129902
196,000000; -0,131343
195,000000; -0,132051
194,000000; -0,137218
193,000000; -0,134059
192,000000; -0,141744
191,000000; -0,137402
190,000000; -0,143090
