nm; A
700,000000; -0,000445
699,000000; -0,000445
698,000000; -0,000421
697,000000; -0,000453
696,000000; -0,000385
695,000000; -0,000421
694,000000; -0,000405
693,000000; -0,000341
692,000000; -0,000349
691,000000; -0,000249
690,000000; -0,000349
689,000000; -0,000321
688,000000; -0,000301
687,000000; -0,000285
686,000000; -0,000394
685,000000; -0,000366
684,000000; -0,000342
683,000000; -0,000221
682,000000; -0,000173
681,000000; -0,000277
680,000000; -0,000221
679,000000; -0,000173
678,000000; -0,000282
677,000000; -0,000197
676,000000; -0,000137
675,000000; -0,000229
674,000000; -0,000286
673,000000; -0,000209
672,000000; -0,000129
671,000000; -0,000181
670,000000; -0,000274
669,000000; -0,000189
668,000000; -0,000121
667,000000; -0,000222
666,000000; -0,000141
665,000000; -0,000206
664,000000; -0,000222
663,000000; -0,000198
662,000000; -0,000178
661,000000; -0,000141
660,000000; -0,000230
659,000000; -0,000145
658,000000; -0,000210
657,000000; -0,000206
656,000000; -0,000202
655,000000; -0,000234
654,000000; -0,000154
653,000000; -0,000150
652,000000; -0,000190
651,000000; -0,000214
650,000000; -0,000283
649,000000; -0,000263
648,000000; -0,000263
647,000000; -0,000206
646,000000; -0,000295
645,000000; -0,000210
644,000000; -0,000279
643,000000; -0,000247
642,000000; -0,000223
641,000000; -0,000316
640,000000; -0,000271
639,000000; -0,000296
638,000000; -0,000243
637,000000; -0,000263
636,000000; -0,000190
635,000000; -0,000284
634,000000; -0,000243
633,000000; -0,000219
632,000000; -0,000251
631,000000; -0,000251
630,000000; -0,000320
629,000000; -0,000227
628,000000; -0,000308
627,000000; -0,000223
626,000000; -0,000280
625,000000; -0,000288
624,000000; -0,000300
623,000000; -0,000219
622,000000; -0,000264
621,000000; -0,000199
620,000000; -0,000358
619,000000; -0,000317
618,000000; -0,000220
617,000000; -0,000256
616,000000; -0,000220
615,000000; -0,000228
614,000000; -0,000252
613,000000; -0,000297
612,000000; -0,000330
611,000000; -0,000273
610,000000; -0,000338
609,000000; -0,000318
608,000000; -0,000310
607,000000; -0,000253
606,000000; -0,000387
605,000000; -0,000318
604,000000; -0,000245
603,000000; -0,000323
602,000000; -0,000343
601,000000; -0,000380
600,000000; -0,000298
599,000000; -0,000278
598,000000; -0,000303
597,000000; -0,000287
596,000000; -0,000287
595,000000; -0,000307
594,000000; -0,000320
593,000000; -0,000328
592,000000; -0,000349
591,000000; -0,000316
590,000000; -0,000313
589,000000; -0,000304
588,000000; -0,000404
587,000000; -0,000301
586,000000; -0,000350
585,000000; -0,000305
584,000000; -0,000289
583,000000; -0,000339
582,000000; -0,000392
581,000000; -0,000252
580,000000; -0,000306
579,000000; -0,000331
578,000000; -0,000265
577,000000; -0,000285
576,000000; -0,000339
575,000000; -0,000252
574,000000; -0,000339
573,000000; -0,000306
572,000000; -0,000319
571,000000; -0,000364
570,000000; -0,000314
569,000000; -0,000356
568,000000; -0,000360
567,000000; -0,000364
566,000000; -0,000368
565,000000; -0,000331
564,000000; -0,000335
563,000000; -0,000359
562,000000; -0,000384
561,000000; -0,000355
560,000000; -0,000330
559,000000; -0,000438
558,000000; -0,000433
557,000000; -0,000442
556,000000; -0,000417
555,000000; -0,000429
554,000000; -0,000322
553,000000; -0,000289
552,000000; -0,000388
551,000000; -0,000396
550,000000; -0,000350
549,000000; -0,000326
548,000000; -0,000354
547,000000; -0,000363
546,000000; -0,000371
545,000000; -0,000367
544,000000; -0,000425
543,000000; -0,000388
542,000000; -0,000400
541,000000; -0,000363
540,000000; -0,000450
539,000000; -0,000408
538,000000; -0,000421
537,000000; -0,000363
536,000000; -0,000400
535,000000; -0,000421
534,000000; -0,000462
533,000000; -0,000380
532,000000; -0,000404
531,000000; -0,000429
530,000000; -0,000442
529,000000; -0,000409
528,000000; -0,000421
527,000000; -0,000429
526,000000; -0,000471
525,000000; -0,000314
524,000000; -0,000483
523,000000; -0,000392
522,000000; -0,000570
521,000000; -0,000487
520,000000; -0,000471
519,000000; -0,000558
518,000000; -0,000405
517,000000; -0,000537
516,000000; -0,000554
515,000000; -0,000558
514,000000; -0,000471
513,000000; -0,000459
512,000000; -0,000438
511,000000; -0,000393
510,000000; -0,000480
509,000000; -0,000492
508,000000; -0,000405
507,000000; -0,000459
506,000000; -0,000513
505,000000; -0,000480
504,000000; -0,000563
503,000000; -0,000505
502,000000; -0,000435
501,000000; -0,000501
500,000000; -0,000427
499,000000; -0,000398
498,000000; -0,000427
497,000000; -0,000522
496,000000; -0,000485
495,000000; -0,000501
494,000000; -0,000365
493,000000; -0,000481
492,000000; -0,000456
491,000000; -0,000402
490,000000; -0,000382
489,000000; -0,000502
488,000000; -0,000452
487,000000; -0,000436
486,000000; -0,000477
485,000000; -0,000452
484,000000; -0,000386
483,000000; -0,000361
482,000000; -0,000474
481,000000; -0,000411
480,000000; -0,000453
479,000000; -0,000490
478,000000; -0,000362
477,000000; -0,000453
476,000000; -0,000395
475,000000; -0,000466
474,000000; -0,000325
473,000000; -0,000420
472,000000; -0,000370
471,000000; -0,000350
470,000000; -0,000362
469,000000; -0,000375
468,000000; -0,000312
467,000000; -0,000458
466,000000; -0,000429
465,000000; -0,000392
464,000000; -0,000433
463,000000; -0,000388
462,000000; -0,000346
461,000000; -0,000459
460,000000; -0,000409
459,000000; -0,000446
458,000000; -0,000342
457,000000; -0,000493
456,000000; -0,000447
455,000000; -0,000388
454,000000; -0,000468
453,000000; -0,000481
452,000000; -0,000481
451,000000; -0,000435
450,000000; -0,000381
449,000000; -0,000427
448,000000; -0,000381
447,000000; -0,000335
446,000000; -0,000483
445,000000; -0,000357
444,000000; -0,000420
443,000000; -0,000395
442,000000; -0,000496
441,000000; -0,000509
440,000000; -0,000459
439,000000; -0,000421
438,000000; -0,000362
437,000000; -0,000421
436,000000; -0,000455
435,000000; -0,000383
434,000000; -0,000434
433,000000; -0,000455
432,000000; -0,000337
431,000000; -0,000366
430,000000; -0,000345
429,000000; -0,000450
428,000000; -0,000341
427,000000; -0,000475
426,000000; -0,000522
425,000000; -0,000391
424,000000; -0,000408
423,000000; -0,000441
422,000000; -0,000399
421,000000; -0,000475
420,000000; -0,000555
419,000000; -0,000525
418,000000; -0,000437
417,000000; -0,000441
416,000000; -0,000525
415,000000; -0,000437
414,000000; -0,000466
413,000000; -0,000445
412,000000; -0,000492
411,000000; -0,000403
410,000000; -0,000450
409,000000; -0,000403
408,000000; -0,000437
407,000000; -0,000441
406,000000; -0,000420
405,000000; -0,000378
404,000000; -0,000382
403,000000; -0,000353
402,000000; -0,000391
401,000000; -0,000319
400,000000; -0,000298
399,000000; -0,000365
398,000000; -0,000395
397,000000; -0,000340
396,000000; -0,000298
395,000000; -0,000181
394,000000; -0,000344
393,000000; -0,000235
392,000000; -0,000235
391,000000; -0,000298
390,000000; -0,000285
389,000000; -0,000277
388,000000; -0,000202
387,000000; -0,000210
386,000000; -0,000206
385,000000; -0,000189
384,000000; 0,000414
383,000000; 0,000972
382,000000; 0,000593
381,000000; 0,000630
380,000000; 0,000246
379,000000; 0,000213
378,000000; 0,000138
377,000000; 0,000259
376,000000; -0,000042
375,000000; 0,000146
374,000000; 0,000197
373,000000; 0,000235
372,000000; -0,000046
371,000000; 0,000075
370,000000; -0,000084
369,000000; -0,000096
368,000000; -0,000055
367,000000; -0,000055
366,000000; 0,000004
365,000000; 0,000008
364,000000; 0,000055
363,000000; 0,000017
362,000000; 0,000042
361,000000; 0,000113
360,000000; -0,000155
359,000000; 0,000067
358,000000; -0,000008
357,000000; -0,000034
356,000000; 0,000168
355,000000; -0,000164
354,000000; 0,000223
353,000000; -0,000118
352,000000; -0,000088
351,000000; -0,000084
350,000000; 0,000126
349,000000; 0,000164
348,000000; -0,000084
347,000000; -0,000080
346,000000; 0,000110
345,000000; 0,000051
344,000000; -0,000059
343,000000; -0,000021
342,000000; 0,000030
341,000000; 0,000110
340,000000; 0,000123
339,000000; 0,000089
338,000000; 0,000211
337,000000; 0,000169
336,000000; 0,000325
335,000000; 0,000346
334,000000; 0,000253
333,000000; 0,000405
332,000000; 0,000135
331,000000; 0,000435
330,000000; 0,000393
329,000000; 0,000329
328,000000; 0,000291
327,000000; 0,000159
326,000000; -0,000042
325,000000; 0,000168
324,000000; -0,000134
323,000000; 0,000159
322,000000; -0,000034
321,000000; 0,000193
320,000000; 0,000042
319,000000; 0,000105
318,000000; 0,000059
317,000000; 0,000084
316,000000; 0,000084
315,000000; 0,000004
314,000000; 0,000196
313,000000; 0,000092
312,000000; 0,000092
311,000000; 0,000138
310,000000; -0,000008
309,000000; 0,000025
308,000000; -0,000004
307,000000; 0,000133
306,000000; -0,000129
305,000000; -0,000075
304,000000; -0,000100
303,000000; -0,000054
302,000000; -0,000004
301,000000; -0,000221
300,000000; -0,000067
299,000000; -0,000150
298,000000; -0,000137
297,000000; -0,000271
296,000000; -0,000125
295,000000; 0,000004
294,000000; -0,000146
293,000000; -0,000067
292,000000; 0,000008
291,000000; -0,000063
290,000000; -0,000179
289,000000; -0,000196
288,000000; -0,000079
287,000000; 0,000029
286,000000; -0,000137
285,000000; -0,000133
284,000000; -0,000050
283,000000; -0,000062
282,000000; -0,000350
281,000000; -0,000104
280,000000; -0,000300
279,000000; -0,000254
278,000000; -0,000495
277,000000; -0,000279
276,000000; -0,000266
275,000000; -0,000295
274,000000; -0,000179
273,000000; -0,000332
272,000000; -0,000336
271,000000; -0,000261
270,000000; -0,000494
269,000000; -0,000382
268,000000; -0,000299
267,000000; -0,000489
266,000000; -0,000464
265,000000; -0,000286
264,000000; -0,000402
263,000000; -0,000434
262,000000; -0,000484
261,000000; -0,000368
260,000000; -0,000537
259,000000; -0,000392
258,000000; -0,000409
257,000000; -0,000528
256,000000; -0,000635
255,000000; -0,000577
254,000000; -0,000494
253,000000; -0,000601
252,000000; -0,000633
251,000000; -0,000559
250,000000; -0,000497
249,000000; -0,000639
248,000000; -0,000528
247,000000; -0,000535
246,000000; -0,000599
245,000000; -0,000607
244,000000; -0,000667
243,000000; -0,000633
242,000000; -0,000620
241,000000; -0,000615
240,000000; -0,000602
239,000000; -0,000710
238,000000; -0,000523
237,000000; -0,000723
236,000000; -0,000746
235,000000; -0,000733
234,000000; -0,000720
233,000000; -0,000583
232,000000; -0,000605
231,000000; -0,000584
230,000000; -0,000564
229,000000; -0,000456
228,000000; -0,000577
227,000000; -0,000663
226,000000; -0,000674
225,000000; -0,000595
224,000000; -0,000598
223,000000; -0,000534
222,000000; -0,000553
221,000000; -0,000458
220,000000; -0,000469
219,000000; -0,000500
218,000000; -0,000335
217,000000; -0,000238
216,000000; -0,000288
215,000000; -0,000253
214,000000; -0,000210
213,000000; -0,000271
212,000000; -0,000128
211,000000; -0,000309
210,000000; -0,000185
209,000000; -0,000127
208,000000; -0,000100
207,000000; -0,000200
206,000000; -0,000150
205,000000; -0,000138
204,000000; -0,000115
203,000000; -0,000004
202,000000; -0,000168
201,000000; -0,000251
200,000000; -0,000121
