nm; A
700,000000; 0,001762
699,000000; 0,001890
698,000000; 0,001815
697,000000; 0,001819
696,000000; 0,001800
695,000000; 0,001812
694,000000; 0,001808
693,000000; 0,001749
692,000000; 0,001817
691,000000; 0,001781
690,000000; 0,001854
689,000000; 0,001826
688,000000; 0,001794
687,000000; 0,001771
686,000000; 0,001855
685,000000; 0,001763
684,000000; 0,001724
683,000000; 0,001719
682,000000; 0,001751
681,000000; 0,001712
680,000000; 0,001788
679,000000; 0,001660
678,000000; 0,001648
677,000000; 0,001616
676,000000; 0,001765
675,000000; 0,001789
674,000000; 0,001693
673,000000; 0,001658
672,000000; 0,001702
671,000000; 0,001694
670,000000; 0,001747
669,000000; 0,001675
668,000000; 0,001735
667,000000; 0,001676
666,000000; 0,001692
665,000000; 0,001644
664,000000; 0,001677
663,000000; 0,001749
662,000000; 0,001673
661,000000; 0,001653
660,000000; 0,001609
659,000000; 0,001666
658,000000; 0,001694
657,000000; 0,001594
656,000000; 0,001654
655,000000; 0,001671
654,000000; 0,001575
653,000000; 0,001619
652,000000; 0,001627
651,000000; 0,001660
650,000000; 0,001564
649,000000; 0,001540
648,000000; 0,001576
647,000000; 0,001588
646,000000; 0,001488
645,000000; 0,001560
644,000000; 0,001561
643,000000; 0,001541
642,000000; 0,001529
641,000000; 0,001573
640,000000; 0,001497
639,000000; 0,001598
638,000000; 0,001570
637,000000; 0,001550
636,000000; 0,001514
635,000000; 0,001567
634,000000; 0,001522
633,000000; 0,001575
632,000000; 0,001547
631,000000; 0,001471
630,000000; 0,001592
629,000000; 0,001532
628,000000; 0,001443
627,000000; 0,001548
626,000000; 0,001512
625,000000; 0,001565
624,000000; 0,001545
623,000000; 0,001537
622,000000; 0,001586
621,000000; 0,001606
620,000000; 0,001586
619,000000; 0,001606
618,000000; 0,001457
617,000000; 0,001559
616,000000; 0,001579
615,000000; 0,001535
614,000000; 0,001535
613,000000; 0,001524
612,000000; 0,001532
611,000000; 0,001536
610,000000; 0,001537
609,000000; 0,001521
608,000000; 0,001513
607,000000; 0,001522
606,000000; 0,001522
605,000000; 0,001511
604,000000; 0,001540
603,000000; 0,001524
602,000000; 0,001561
601,000000; 0,001489
600,000000; 0,001485
599,000000; 0,001559
598,000000; 0,001450
597,000000; 0,001435
596,000000; 0,001542
595,000000; 0,001542
594,000000; 0,001470
593,000000; 0,001524
592,000000; 0,001484
591,000000; 0,001481
590,000000; 0,001539
589,000000; 0,001515
588,000000; 0,001541
587,000000; 0,001485
586,000000; 0,001498
585,000000; 0,001568
584,000000; 0,001520
583,000000; 0,001521
582,000000; 0,001542
581,000000; 0,001583
580,000000; 0,001510
579,000000; 0,001527
578,000000; 0,001552
577,000000; 0,001523
576,000000; 0,001552
575,000000; 0,001523
574,000000; 0,001569
573,000000; 0,001581
572,000000; 0,001507
571,000000; 0,001519
570,000000; 0,001478
569,000000; 0,001531
568,000000; 0,001461
567,000000; 0,001510
566,000000; 0,001510
565,000000; 0,001534
564,000000; 0,001493
563,000000; 0,001558
562,000000; 0,001558
561,000000; 0,001521
560,000000; 0,001508
559,000000; 0,001467
558,000000; 0,001434
557,000000; 0,001388
556,000000; 0,001429
555,000000; 0,001433
554,000000; 0,001474
553,000000; 0,001420
552,000000; 0,001367
551,000000; 0,001391
550,000000; 0,001399
549,000000; 0,001403
548,000000; 0,001452
547,000000; 0,001378
546,000000; 0,001403
545,000000; 0,001403
544,000000; 0,001342
543,000000; 0,001326
542,000000; 0,001461
541,000000; 0,001359
540,000000; 0,001486
539,000000; 0,001330
538,000000; 0,001359
537,000000; 0,001335
536,000000; 0,001474
535,000000; 0,001281
534,000000; 0,001314
533,000000; 0,001282
532,000000; 0,001294
531,000000; 0,001306
530,000000; 0,001224
529,000000; 0,001278
528,000000; 0,001303
527,000000; 0,001294
526,000000; 0,001241
525,000000; 0,001303
524,000000; 0,001176
523,000000; 0,001209
522,000000; 0,001180
521,000000; 0,001267
520,000000; 0,001197
519,000000; 0,001213
518,000000; 0,001263
517,000000; 0,001201
516,000000; 0,001202
515,000000; 0,001235
514,000000; 0,001173
513,000000; 0,001132
512,000000; 0,001165
511,000000; 0,001210
510,000000; 0,001174
509,000000; 0,001166
508,000000; 0,001215
507,000000; 0,001223
506,000000; 0,001150
505,000000; 0,001211
504,000000; 0,001035
503,000000; 0,001113
502,000000; 0,001081
501,000000; 0,001097
500,000000; 0,001036
499,000000; 0,001143
498,000000; 0,001110
497,000000; 0,001040
496,000000; 0,001061
495,000000; 0,001160
494,000000; 0,001148
493,000000; 0,001049
492,000000; 0,001128
491,000000; 0,001165
490,000000; 0,001099
489,000000; 0,001004
488,000000; 0,001029
487,000000; 0,001108
486,000000; 0,001116
485,000000; 0,001203
484,000000; 0,001092
483,000000; 0,001100
482,000000; 0,001068
481,000000; 0,001080
480,000000; 0,001085
479,000000; 0,001081
478,000000; 0,001147
477,000000; 0,001139
476,000000; 0,001135
475,000000; 0,001168
474,000000; 0,001160
473,000000; 0,001235
472,000000; 0,001182
471,000000; 0,001136
470,000000; 0,001083
469,000000; 0,001133
468,000000; 0,001092
467,000000; 0,001278
466,000000; 0,001183
465,000000; 0,001187
464,000000; 0,001171
463,000000; 0,001150
462,000000; 0,001188
461,000000; 0,001155
460,000000; 0,001164
459,000000; 0,001151
458,000000; 0,001135
457,000000; 0,001148
456,000000; 0,001128
455,000000; 0,001186
454,000000; 0,001120
453,000000; 0,001125
452,000000; 0,001142
451,000000; 0,001139
450,000000; 0,001173
449,000000; 0,001094
448,000000; 0,001203
447,000000; 0,001141
446,000000; 0,001038
445,000000; 0,001134
444,000000; 0,001181
443,000000; 0,001211
442,000000; 0,001085
441,000000; 0,001278
440,000000; 0,001204
439,000000; 0,001171
438,000000; 0,001150
437,000000; 0,001234
436,000000; 0,001200
435,000000; 0,001159
434,000000; 0,001176
433,000000; 0,001008
432,000000; 0,001125
431,000000; 0,001163
430,000000; 0,001100
429,000000; 0,001062
428,000000; 0,001041
427,000000; 0,001079
426,000000; 0,001074
425,000000; 0,001150
424,000000; 0,001116
423,000000; 0,000982
422,000000; 0,001062
421,000000; 0,000999
420,000000; 0,001003
419,000000; 0,000978
418,000000; 0,001069
417,000000; 0,001048
416,000000; 0,001082
415,000000; 0,000927
414,000000; 0,001019
413,000000; 0,000923
412,000000; 0,000986
411,000000; 0,000982
410,000000; 0,000965
409,000000; 0,000986
408,000000; 0,000865
407,000000; 0,000915
406,000000; 0,000952
405,000000; 0,000844
404,000000; 0,000848
403,000000; 0,000777
402,000000; 0,000789
401,000000; 0,000714
400,000000; 0,000710
399,000000; 0,000764
398,000000; 0,000685
397,000000; 0,000689
396,000000; 0,000668
395,000000; 0,000718
394,000000; 0,000618
393,000000; 0,000706
392,000000; 0,000514
391,000000; 0,000551
390,000000; 0,000639
389,000000; 0,000589
388,000000; 0,000651
387,000000; 0,000568
386,000000; 0,000639
385,000000; 0,000493
384,000000; 0,000649
383,000000; 0,000457
382,000000; 0,000511
381,000000; 0,000129
380,000000; 0,000714
379,000000; 0,000324
378,000000; 0,000540
377,000000; 0,000390
376,000000; 0,000453
375,000000; 0,000416
374,000000; 0,000374
373,000000; 0,000454
372,000000; 0,000412
371,000000; 0,000608
370,000000; 0,000279
369,000000; 0,000217
368,000000; 0,000283
367,000000; 0,000325
366,000000; 0,000158
365,000000; 0,000392
364,000000; 0,000275
363,000000; 0,000288
362,000000; 0,000375
361,000000; 0,000338
360,000000; 0,000204
359,000000; 0,000351
358,000000; 0,000296
357,000000; 0,000296
356,000000; 0,000263
355,000000; 0,000413
354,000000; 0,000363
353,000000; 0,000226
352,000000; 0,000230
351,000000; 0,000209
350,000000; 0,000088
349,000000; 0,000276
348,000000; 0,000209
347,000000; 0,000180
346,000000; 0,000310
345,000000; -0,000042
344,000000; 0,000126
343,000000; 0,000235
342,000000; 0,000335
341,000000; 0,000017
340,000000; 0,000025
339,000000; -0,000017
338,000000; 0,000025
337,000000; 0,000197
336,000000; -0,000004
335,000000; 0,000205
334,000000; -0,000004
333,000000; -0,000004
332,000000; 0,000004
331,000000; 0,000046
330,000000; 0,000188
329,000000; -0,000063
328,000000; -0,000042
327,000000; 0,000004
326,000000; 0,000083
325,000000; -0,000046
324,000000; 0,000165
323,000000; 0,000091
322,000000; 0,000074
321,000000; -0,000054
320,000000; 0,000074
319,000000; 0,000132
318,000000; 0,000095
317,000000; -0,000087
316,000000; 0,000177
315,000000; -0,000041
314,000000; -0,000210
313,000000; -0,000029
312,000000; 0,000004
311,000000; -0,000012
310,000000; -0,000209
309,000000; -0,000160
308,000000; -0,000082
307,000000; -0,000102
306,000000; -0,000156
305,000000; -0,000205
304,000000; -0,000115
303,000000; -0,000082
302,000000; -0,000163
301,000000; -0,000053
300,000000; -0,000110
299,000000; -0,000147
298,000000; -0,000171
297,000000; -0,000245
296,000000; -0,000285
295,000000; -0,000126
294,000000; -0,000159
293,000000; -0,000155
292,000000; -0,000069
291,000000; -0,000204
290,000000; -0,000179
289,000000; -0,000244
288,000000; -0,000289
287,000000; -0,000171
286,000000; -0,000378
285,000000; -0,000414
284,000000; -0,000138
283,000000; -0,000276
282,000000; -0,000235
281,000000; -0,000365
280,000000; -0,000247
279,000000; -0,000267
278,000000; -0,000320
277,000000; -0,000299
276,000000; -0,000206
275,000000; -0,000121
274,000000; -0,000411
273,000000; -0,000218
272,000000; -0,000379
271,000000; -0,000439
270,000000; -0,000177
269,000000; -0,000185
268,000000; -0,000277
267,000000; -0,000116
266,000000; -0,000188
265,000000; -0,000304
264,000000; -0,000260
263,000000; -0,000164
262,000000; -0,000267
261,000000; -0,000116
260,000000; -0,000096
259,000000; -0,000167
258,000000; -0,000207
257,000000; -0,000119
256,000000; -0,000048
255,000000; -0,000075
254,000000; -0,000012
253,000000; -0,000024
252,000000; -0,000083
251,000000; -0,000165
250,000000; -0,000075
249,000000; -0,000125
248,000000; -0,000137
247,000000; -0,000144
246,000000; -0,000144
245,000000; -0,000167
244,000000; -0,000081
243,000000; -0,000062
242,000000; -0,000031
241,000000; -0,000150
240,000000; -0,000084
239,000000; -0,000096
238,000000; -0,000152
237,000000; -0,000228
236,000000; -0,000034
235,000000; -0,000053
234,000000; -0,000030
233,000000; -0,000086
232,000000; -0,000109
231,000000; -0,000105
230,000000; -0,000149
229,000000; -0,000204
228,000000; -0,000344
227,000000; -0,000258
226,000000; -0,000335
225,000000; -0,000327
224,000000; -0,000318
223,000000; -0,000547
222,000000; -0,000513
221,000000; -0,000653
220,000000; -0,000669
219,000000; -0,000591
218,000000; -0,000725
217,000000; -0,000786
216,000000; -0,000940
215,000000; -0,001011
214,000000; -0,001099
213,000000; -0,001193
212,000000; -0,001044
211,000000; -0,001134
210,000000; -0,001254
209,000000; -0,001311
208,000000; -0,001332
207,000000; -0,001422
206,000000; -0,001323
205,000000; -0,001345
204,000000; -0,001230
203,000000; -0,001367
202,000000; -0,001308
201,000000; -0,001340
200,000000; -0,001194
199,000000; -0,001287
198,000000; -0,001033
197,000000; -0,001016
196,000000; -0,000651
195,000000; -0,000989
194,000000; -0,000936
193,000000; -0,001093
192,000000; -0,001089
191,000000; -0,000945
190,000000; -0,000974
