nm; A
700,000000; 0,002726
699,000000; 0,002766
698,000000; 0,002771
697,000000; 0,002784
696,000000; 0,002720
695,000000; 0,002841
694,000000; 0,002753
693,000000; 0,002754
692,000000; 0,002762
691,000000; 0,002823
690,000000; 0,002904
689,000000; 0,002828
688,000000; 0,002869
687,000000; 0,002854
686,000000; 0,002846
685,000000; 0,002931
684,000000; 0,002899
683,000000; 0,002879
682,000000; 0,002871
681,000000; 0,002903
680,000000; 0,002884
679,000000; 0,002828
678,000000; 0,002865
677,000000; 0,002813
676,000000; 0,002869
675,000000; 0,002946
674,000000; 0,002943
673,000000; 0,002887
672,000000; 0,002932
671,000000; 0,002952
670,000000; 0,003013
669,000000; 0,002925
668,000000; 0,003018
667,000000; 0,003007
666,000000; 0,002980
665,000000; 0,002960
664,000000; 0,002948
663,000000; 0,003049
662,000000; 0,002925
661,000000; 0,002910
660,000000; 0,002922
659,000000; 0,003003
658,000000; 0,002987
657,000000; 0,002948
656,000000; 0,002968
655,000000; 0,003017
654,000000; 0,003038
653,000000; 0,002994
652,000000; 0,003035
651,000000; 0,003079
650,000000; 0,002943
649,000000; 0,003032
648,000000; 0,003028
647,000000; 0,003065
646,000000; 0,002965
645,000000; 0,003034
644,000000; 0,003094
643,000000; 0,003083
642,000000; 0,003063
641,000000; 0,003116
640,000000; 0,003149
639,000000; 0,003169
638,000000; 0,003190
637,000000; 0,003134
636,000000; 0,003151
635,000000; 0,003289
634,000000; 0,003204
633,000000; 0,003249
632,000000; 0,003221
631,000000; 0,003254
630,000000; 0,003335
629,000000; 0,003227
628,000000; 0,003296
627,000000; 0,003325
626,000000; 0,003345
625,000000; 0,003375
624,000000; 0,003407
623,000000; 0,003420
622,000000; 0,003485
621,000000; 0,003547
620,000000; 0,003507
619,000000; 0,003568
618,000000; 0,003545
617,000000; 0,003566
616,000000; 0,003611
615,000000; 0,003652
614,000000; 0,003645
613,000000; 0,003601
612,000000; 0,003667
611,000000; 0,003680
610,000000; 0,003705
609,000000; 0,003719
608,000000; 0,003712
607,000000; 0,003794
606,000000; 0,003816
605,000000; 0,003821
604,000000; 0,003794
603,000000; 0,003824
602,000000; 0,003891
601,000000; 0,003901
600,000000; 0,003842
599,000000; 0,003860
598,000000; 0,003923
597,000000; 0,003946
596,000000; 0,003944
595,000000; 0,004082
594,000000; 0,004035
593,000000; 0,004181
592,000000; 0,004028
591,000000; 0,004207
590,000000; 0,004160
589,000000; 0,004216
588,000000; 0,004272
587,000000; 0,004267
586,000000; 0,004356
585,000000; 0,004408
584,000000; 0,004431
583,000000; 0,004383
582,000000; 0,004501
581,000000; 0,004544
580,000000; 0,004562
579,000000; 0,004613
578,000000; 0,004626
577,000000; 0,004653
576,000000; 0,004686
575,000000; 0,004735
574,000000; 0,004728
573,000000; 0,004769
572,000000; 0,004794
571,000000; 0,004900
570,000000; 0,004876
569,000000; 0,004924
568,000000; 0,004940
567,000000; 0,004965
566,000000; 0,005009
565,000000; 0,005021
564,000000; 0,005078
563,000000; 0,005118
562,000000; 0,005192
561,000000; 0,005224
560,000000; 0,005203
559,000000; 0,005273
558,000000; 0,005258
557,000000; 0,005302
556,000000; 0,005268
555,000000; 0,005375
554,000000; 0,005374
553,000000; 0,005402
552,000000; 0,005415
551,000000; 0,005410
550,000000; 0,005442
549,000000; 0,005590
548,000000; 0,005589
547,000000; 0,005569
546,000000; 0,005607
545,000000; 0,005640
544,000000; 0,005624
543,000000; 0,005629
542,000000; 0,005777
541,000000; 0,005693
540,000000; 0,005783
539,000000; 0,005739
538,000000; 0,005764
537,000000; 0,005827
536,000000; 0,005922
535,000000; 0,005815
534,000000; 0,005944
533,000000; 0,005829
532,000000; 0,005969
531,000000; 0,005999
530,000000; 0,006049
529,000000; 0,005902
528,000000; 0,006025
527,000000; 0,006117
526,000000; 0,006064
525,000000; 0,006160
524,000000; 0,006078
523,000000; 0,006244
522,000000; 0,006216
521,000000; 0,006266
520,000000; 0,006259
519,000000; 0,006226
518,000000; 0,006347
517,000000; 0,006335
516,000000; 0,006390
515,000000; 0,006420
514,000000; 0,006441
513,000000; 0,006538
512,000000; 0,006563
511,000000; 0,006594
510,000000; 0,006649
509,000000; 0,006637
508,000000; 0,006696
507,000000; 0,006739
506,000000; 0,006786
505,000000; 0,006807
504,000000; 0,006810
503,000000; 0,006839
502,000000; 0,006845
501,000000; 0,006866
500,000000; 0,006872
499,000000; 0,007044
498,000000; 0,007044
497,000000; 0,007050
496,000000; 0,007106
495,000000; 0,007115
494,000000; 0,007266
493,000000; 0,007251
492,000000; 0,007227
491,000000; 0,007358
490,000000; 0,007249
489,000000; 0,007477
488,000000; 0,007465
487,000000; 0,007501
486,000000; 0,007469
485,000000; 0,007608
484,000000; 0,007610
483,000000; 0,007683
482,000000; 0,007676
481,000000; 0,007687
480,000000; 0,007788
479,000000; 0,007862
478,000000; 0,007909
477,000000; 0,007999
476,000000; 0,008027
475,000000; 0,008124
474,000000; 0,008142
473,000000; 0,008232
472,000000; 0,008285
471,000000; 0,008287
470,000000; 0,008310
469,000000; 0,008312
468,000000; 0,008342
467,000000; 0,008569
466,000000; 0,008688
465,000000; 0,008628
464,000000; 0,008727
463,000000; 0,008817
462,000000; 0,008895
461,000000; 0,008885
460,000000; 0,008992
459,000000; 0,009057
458,000000; 0,009183
457,000000; 0,009233
456,000000; 0,009217
455,000000; 0,009332
454,000000; 0,009447
453,000000; 0,009524
452,000000; 0,009546
451,000000; 0,009589
450,000000; 0,009794
449,000000; 0,009753
448,000000; 0,009935
447,000000; 0,009867
446,000000; 0,010005
445,000000; 0,010118
444,000000; 0,010313
443,000000; 0,010283
442,000000; 0,010589
441,000000; 0,010586
440,000000; 0,010589
439,000000; 0,010599
438,000000; 0,010778
437,000000; 0,010929
436,000000; 0,010903
435,000000; 0,011060
434,000000; 0,011069
433,000000; 0,011010
432,000000; 0,011181
431,000000; 0,011266
430,000000; 0,011406
429,000000; 0,011437
428,000000; 0,011472
427,000000; 0,011656
426,000000; 0,011839
425,000000; 0,011919
424,000000; 0,011910
423,000000; 0,011980
422,000000; 0,012226
421,000000; 0,012233
420,000000; 0,012339
419,000000; 0,012374
418,000000; 0,012585
417,000000; 0,012657
416,000000; 0,012712
415,000000; 0,012787
414,000000; 0,012928
413,000000; 0,013024
412,000000; 0,013204
411,000000; 0,013253
410,000000; 0,013335
409,000000; 0,013472
408,000000; 0,013564
407,000000; 0,013666
406,000000; 0,013866
405,000000; 0,013809
404,000000; 0,013997
403,000000; 0,014025
402,000000; 0,014132
401,000000; 0,014209
400,000000; 0,014373
399,000000; 0,014476
398,000000; 0,014467
397,000000; 0,014614
396,000000; 0,014736
395,000000; 0,014821
394,000000; 0,014970
393,000000; 0,015122
392,000000; 0,015084
391,000000; 0,015213
390,000000; 0,015279
389,000000; 0,015423
388,000000; 0,015646
387,000000; 0,015543
386,000000; 0,015765
385,000000; 0,015929
384,000000; 0,015802
383,000000; 0,015818
382,000000; 0,016201
381,000000; 0,015940
380,000000; 0,016517
379,000000; 0,016230
378,000000; 0,016594
377,000000; 0,016542
376,000000; 0,016721
375,000000; 0,016964
374,000000; 0,017073
373,000000; 0,017161
372,000000; 0,017332
371,000000; 0,017708
370,000000; 0,017378
369,000000; 0,017548
368,000000; 0,017656
367,000000; 0,017957
366,000000; 0,017847
365,000000; 0,018218
364,000000; 0,018124
363,000000; 0,018243
362,000000; 0,018547
361,000000; 0,018500
360,000000; 0,018722
359,000000; 0,018741
358,000000; 0,018917
357,000000; 0,019063
356,000000; 0,019129
355,000000; 0,019558
354,000000; 0,019563
353,000000; 0,019449
352,000000; 0,019696
351,000000; 0,019698
350,000000; 0,019742
349,000000; 0,019987
348,000000; 0,020110
347,000000; 0,020217
346,000000; 0,020340
345,000000; 0,020106
344,000000; 0,020479
343,000000; 0,020555
342,000000; 0,020805
341,000000; 0,020897
340,000000; 0,020851
339,000000; 0,021076
338,000000; 0,020928
337,000000; 0,021253
336,000000; 0,021374
335,000000; 0,021556
334,000000; 0,021557
333,000000; 0,021867
332,000000; 0,021973
331,000000; 0,021896
330,000000; 0,022130
329,000000; 0,022057
328,000000; 0,022183
327,000000; 0,022565
326,000000; 0,022549
325,000000; 0,022580
324,000000; 0,022875
323,000000; 0,022933
322,000000; 0,023138
321,000000; 0,022918
320,000000; 0,023217
319,000000; 0,023416
318,000000; 0,023596
317,000000; 0,023601
316,000000; 0,023811
315,000000; 0,023945
314,000000; 0,023871
313,000000; 0,024172
312,000000; 0,024355
311,000000; 0,024543
310,000000; 0,024484
309,000000; 0,024713
308,000000; 0,024826
307,000000; 0,025119
306,000000; 0,025146
305,000000; 0,025290
304,000000; 0,025559
303,000000; 0,025705
302,000000; 0,025928
301,000000; 0,026175
300,000000; 0,026387
299,000000; 0,026542
298,000000; 0,026728
297,000000; 0,026870
296,000000; 0,026949
295,000000; 0,027235
294,000000; 0,027375
293,000000; 0,027597
292,000000; 0,027734
291,000000; 0,027853
290,000000; 0,028033
289,000000; 0,028449
288,000000; 0,028383
287,000000; 0,028779
286,000000; 0,028871
285,000000; 0,028959
284,000000; 0,029305
283,000000; 0,029525
282,000000; 0,029666
281,000000; 0,029631
280,000000; 0,029850
279,000000; 0,030048
278,000000; 0,030202
277,000000; 0,030534
276,000000; 0,030598
275,000000; 0,030969
274,000000; 0,031085
273,000000; 0,031239
272,000000; 0,031339
271,000000; 0,031690
270,000000; 0,031908
269,000000; 0,032056
268,000000; 0,032277
267,000000; 0,032437
266,000000; 0,032694
265,000000; 0,032734
264,000000; 0,032956
263,000000; 0,033270
262,000000; 0,033276
261,000000; 0,033764
260,000000; 0,034005
259,000000; 0,034433
258,000000; 0,034786
257,000000; 0,035379
256,000000; 0,036051
255,000000; 0,036647
254,000000; 0,037669
253,000000; 0,038578
252,000000; 0,039751
251,000000; 0,041325
250,000000; 0,043216
249,000000; 0,045417
248,000000; 0,048039
247,000000; 0,051169
246,000000; 0,054933
245,000000; 0,059608
244,000000; 0,064870
243,000000; 0,070997
242,000000; 0,078205
241,000000; 0,086548
240,000000; 0,095918
239,000000; 0,106328
238,000000; 0,117838
237,000000; 0,130364
236,000000; 0,144373
235,000000; 0,158851
234,000000; 0,174300
233,000000; 0,190066
232,000000; 0,206252
231,000000; 0,222090
230,000000; 0,237691
229,000000; 0,252480
228,000000; 0,266334
227,000000; 0,279206
226,000000; 0,290843
225,000000; 0,301614
224,000000; 0,312177
223,000000; 0,323082
222,000000; 0,336134
221,000000; 0,352546
220,000000; 0,375866
219,000000; 0,408916
218,000000; 0,456645
217,000000; 0,525517
216,000000; 0,621463
215,000000; 0,753015
214,000000; 0,930766
213,000000; 1,164570
212,000000; 1,462177
211,000000; 1,812662
210,000000; 2,164248
209,000000; 2,405392
208,000000; 2,504695
207,000000; 2,538589
206,000000; 2,559122
205,000000; 2,560599
204,000000; 2,576912
203,000000; 2,575406
202,000000; 2,582263
201,000000; 2,601181
200,000000; 2,596226
199,000000; 2,597672
198,000000; 2,588978
197,000000; 2,597148
196,000000; 2,565495
195,000000; 2,492565
194,000000; 2,516042
193,000000; 2,397663
192,000000; 2,400593
191,000000; 2,267583
190,000000; 2,148773
