nm; A
700,000000; 0,359591
699,000000; 0,359315
698,000000; 0,359184
697,000000; 0,358958
696,000000; 0,358801
695,000000; 0,358718
694,000000; 0,358491
693,000000; 0,358437
692,000000; 0,358279
691,000000; 0,358121
690,000000; 0,358029
689,000000; 0,357902
688,000000; 0,357710
687,000000; 0,357530
686,000000; 0,357471
685,000000; 0,357251
684,000000; 0,357335
683,000000; 0,355332
682,000000; 0,354721
681,000000; 0,354432
680,000000; 0,354375
679,000000; 0,354317
678,000000; 0,354086
677,000000; 0,354068
676,000000; 0,354027
675,000000; 0,353848
674,000000; 0,353684
673,000000; 0,353461
672,000000; 0,353423
671,000000; 0,353291
670,000000; 0,353189
669,000000; 0,352902
668,000000; 0,352917
667,000000; 0,352616
666,000000; 0,352430
665,000000; 0,352400
664,000000; 0,352139
663,000000; 0,352169
662,000000; 0,351990
661,000000; 0,351818
660,000000; 0,351745
659,000000; 0,351489
658,000000; 0,351453
657,000000; 0,351259
656,000000; 0,351186
655,000000; 0,351079
654,000000; 0,350892
653,000000; 0,350796
652,000000; 0,350693
651,000000; 0,350524
650,000000; 0,350335
649,000000; 0,350235
648,000000; 0,350147
647,000000; 0,350106
646,000000; 0,349913
645,000000; 0,349952
644,000000; 0,349937
643,000000; 0,349825
642,000000; 0,349703
641,000000; 0,349589
640,000000; 0,349458
639,000000; 0,349346
638,000000; 0,349205
637,000000; 0,349109
636,000000; 0,348960
635,000000; 0,348917
634,000000; 0,348754
633,000000; 0,348646
632,000000; 0,348413
631,000000; 0,348241
630,000000; 0,348217
629,000000; 0,347960
628,000000; 0,347861
627,000000; 0,347740
626,000000; 0,347561
625,000000; 0,347454
624,000000; 0,347303
623,000000; 0,347248
622,000000; 0,347047
621,000000; 0,347007
620,000000; 0,346837
619,000000; 0,346775
618,000000; 0,346670
617,000000; 0,346642
616,000000; 0,346543
615,000000; 0,346435
614,000000; 0,346286
613,000000; 0,346213
612,000000; 0,346180
611,000000; 0,345987
610,000000; 0,345957
609,000000; 0,345764
608,000000; 0,345517
607,000000; 0,345438
606,000000; 0,345234
605,000000; 0,345064
604,000000; 0,344878
603,000000; 0,344851
602,000000; 0,344683
601,000000; 0,344490
600,000000; 0,344320
599,000000; 0,344160
598,000000; 0,343962
597,000000; 0,343747
596,000000; 0,343590
595,000000; 0,343417
594,000000; 0,343187
593,000000; 0,343052
592,000000; 0,342811
591,000000; 0,342673
590,000000; 0,342453
589,000000; 0,342260
588,000000; 0,342168
587,000000; 0,341934
586,000000; 0,341882
585,000000; 0,341648
584,000000; 0,341434
583,000000; 0,341353
582,000000; 0,341159
581,000000; 0,341070
580,000000; 0,340993
579,000000; 0,340909
578,000000; 0,340825
577,000000; 0,340771
576,000000; 0,340646
575,000000; 0,340690
574,000000; 0,340587
573,000000; 0,340533
572,000000; 0,340397
571,000000; 0,340400
570,000000; 0,340316
569,000000; 0,340276
568,000000; 0,340268
567,000000; 0,340212
566,000000; 0,340301
565,000000; 0,340398
564,000000; 0,340530
563,000000; 0,340650
562,000000; 0,340761
561,000000; 0,340821
560,000000; 0,340917
559,000000; 0,340407
558,000000; 0,345021
557,000000; 0,345512
556,000000; 0,345658
555,000000; 0,345592
554,000000; 0,345626
553,000000; 0,345807
552,000000; 0,345726
551,000000; 0,345845
550,000000; 0,346044
549,000000; 0,346096
548,000000; 0,346264
547,000000; 0,346382
546,000000; 0,346484
545,000000; 0,346631
544,000000; 0,346739
543,000000; 0,346845
542,000000; 0,347006
541,000000; 0,347032
540,000000; 0,347190
539,000000; 0,347270
538,000000; 0,347357
537,000000; 0,347531
536,000000; 0,347795
535,000000; 0,348021
534,000000; 0,348207
533,000000; 0,348311
532,000000; 0,348681
531,000000; 0,348893
530,000000; 0,349176
529,000000; 0,349431
528,000000; 0,349941
527,000000; 0,350221
526,000000; 0,350496
525,000000; 0,350943
524,000000; 0,351175
523,000000; 0,351661
522,000000; 0,352062
521,000000; 0,352375
520,000000; 0,352825
519,000000; 0,353351
518,000000; 0,353804
517,000000; 0,354174
516,000000; 0,354703
515,000000; 0,355141
514,000000; 0,355790
513,000000; 0,356180
512,000000; 0,356725
511,000000; 0,357369
510,000000; 0,357817
509,000000; 0,358380
508,000000; 0,358891
507,000000; 0,359580
506,000000; 0,360099
505,000000; 0,360671
504,000000; 0,361175
503,000000; 0,361825
502,000000; 0,362198
501,000000; 0,362731
500,000000; 0,363224
499,000000; 0,363799
498,000000; 0,364346
497,000000; 0,364938
496,000000; 0,365421
495,000000; 0,365984
494,000000; 0,366533
493,000000; 0,367005
492,000000; 0,367437
491,000000; 0,368093
490,000000; 0,368583
489,000000; 0,369010
488,000000; 0,369563
487,000000; 0,369968
486,000000; 0,370469
485,000000; 0,370992
484,000000; 0,371351
483,000000; 0,371811
482,000000; 0,372287
481,000000; 0,372831
480,000000; 0,373255
479,000000; 0,373738
478,000000; 0,374166
477,000000; 0,374629
476,000000; 0,374991
475,000000; 0,375523
474,000000; 0,375963
473,000000; 0,376482
472,000000; 0,377046
471,000000; 0,377511
470,000000; 0,378040
469,000000; 0,378642
468,000000; 0,379198
467,000000; 0,379929
466,000000; 0,380684
465,000000; 0,381308
464,000000; 0,382056
463,000000; 0,382888
462,000000; 0,383690
461,000000; 0,384513
460,000000; 0,385458
459,000000; 0,386377
458,000000; 0,387335
457,000000; 0,388292
456,000000; 0,389245
455,000000; 0,390476
454,000000; 0,391511
453,000000; 0,392546
452,000000; 0,393659
451,000000; 0,394879
450,000000; 0,396075
449,000000; 0,397288
448,000000; 0,398576
447,000000; 0,399845
446,000000; 0,401147
445,000000; 0,402601
444,000000; 0,404011
443,000000; 0,405250
442,000000; 0,406813
441,000000; 0,408368
440,000000; 0,409820
439,000000; 0,411346
438,000000; 0,412800
437,000000; 0,414475
436,000000; 0,416172
435,000000; 0,417750
434,000000; 0,419424
433,000000; 0,421239
432,000000; 0,422960
431,000000; 0,424896
430,000000; 0,426765
429,000000; 0,428590
428,000000; 0,430266
427,000000; 0,432113
426,000000; 0,434122
425,000000; 0,435957
424,000000; 0,437955
423,000000; 0,439687
422,000000; 0,441588
421,000000; 0,443127
420,000000; 0,444968
419,000000; 0,446772
418,000000; 0,448637
417,000000; 0,450395
416,000000; 0,452229
415,000000; 0,454042
414,000000; 0,455863
413,000000; 0,457633
412,000000; 0,459496
411,000000; 0,461326
410,000000; 0,463253
409,000000; 0,465279
408,000000; 0,467052
407,000000; 0,469002
406,000000; 0,471060
405,000000; 0,472960
404,000000; 0,474994
403,000000; 0,476988
402,000000; 0,478949
401,000000; 0,481003
400,000000; 0,483134
399,000000; 0,485522
398,000000; 0,487565
397,000000; 0,489953
396,000000; 0,492289
395,000000; 0,494745
394,000000; 0,497065
393,000000; 0,499795
392,000000; 0,502166
391,000000; 0,504788
390,000000; 0,507371
389,000000; 0,509990
388,000000; 0,512667
387,000000; 0,515245
386,000000; 0,518052
385,000000; 0,520881
384,000000; 0,521941
383,000000; 0,522886
382,000000; 0,526963
381,000000; 0,529454
380,000000; 0,533168
379,000000; 0,535751
378,000000; 0,539154
377,000000; 0,542057
376,000000; 0,544958
375,000000; 0,548073
374,000000; 0,550786
373,000000; 0,553549
372,000000; 0,556405
371,000000; 0,559487
370,000000; 0,561988
369,000000; 0,564384
368,000000; 0,567117
367,000000; 0,569918
366,000000; 0,572752
365,000000; 0,575608
364,000000; 0,578471
363,000000; 0,580983
362,000000; 0,583933
361,000000; 0,586681
360,000000; 0,589528
359,000000; 0,592072
358,000000; 0,594851
357,000000; 0,597865
356,000000; 0,600556
355,000000; 0,603682
354,000000; 0,606715
353,000000; 0,609332
352,000000; 0,612519
351,000000; 0,615520
350,000000; 0,618518
349,000000; 0,621657
348,000000; 0,624751
347,000000; 0,627880
346,000000; 0,630908
345,000000; 0,633972
344,000000; 0,637541
343,000000; 0,640627
342,000000; 0,643875
341,000000; 0,647369
340,000000; 0,650436
339,000000; 0,653837
338,000000; 0,657419
337,000000; 0,660668
336,000000; 0,664197
335,000000; 0,667668
334,000000; 0,671325
333,000000; 0,674671
332,000000; 0,677884
331,000000; 0,681122
330,000000; 0,684640
329,000000; 0,687881
328,000000; 0,693904
327,000000; 0,652902
326,000000; 0,654805
325,000000; 0,657836
324,000000; 0,660538
323,000000; 0,663119
322,000000; 0,666121
321,000000; 0,668811
320,000000; 0,671249
319,000000; 0,673746
318,000000; 0,676113
317,000000; 0,678256
316,000000; 0,680674
315,000000; 0,682119
314,000000; 0,684334
313,000000; 0,686262
312,000000; 0,687790
311,000000; 0,689475
310,000000; 0,690365
309,000000; 0,691762
308,000000; 0,693052
307,000000; 0,693913
306,000000; 0,694936
305,000000; 0,695753
304,000000; 0,696348
303,000000; 0,696622
302,000000; 0,696919
301,000000; 0,697213
300,000000; 0,697076
299,000000; 0,696471
298,000000; 0,696168
297,000000; 0,695792
296,000000; 0,694849
295,000000; 0,694028
294,000000; 0,693175
293,000000; 0,692246
292,000000; 0,690822
291,000000; 0,689211
290,000000; 0,688061
289,000000; 0,686814
288,000000; 0,685396
287,000000; 0,683777
286,000000; 0,682110
285,000000; 0,679964
284,000000; 0,678421
283,000000; 0,676234
282,000000; 0,674249
281,000000; 0,672059
280,000000; 0,669746
279,000000; 0,667185
278,000000; 0,664825
277,000000; 0,662244
276,000000; 0,659672
275,000000; 0,656871
274,000000; 0,654055
273,000000; 0,651617
272,000000; 0,648899
271,000000; 0,646078
270,000000; 0,643781
269,000000; 0,641176
268,000000; 0,638639
267,000000; 0,636516
266,000000; 0,634422
265,000000; 0,632765
264,000000; 0,631124
263,000000; 0,630001
262,000000; 0,628672
261,000000; 0,628135
260,000000; 0,627560
259,000000; 0,627173
258,000000; 0,627394
257,000000; 0,627902
256,000000; 0,628896
255,000000; 0,629908
254,000000; 0,631642
253,000000; 0,633422
252,000000; 0,635389
251,000000; 0,637910
250,000000; 0,640659
249,000000; 0,643527
248,000000; 0,647005
247,000000; 0,650407
246,000000; 0,654097
245,000000; 0,658182
244,000000; 0,661969
243,000000; 0,666096
242,000000; 0,670339
241,000000; 0,674675
240,000000; 0,678891
239,000000; 0,683078
238,000000; 0,687030
237,000000; 0,691171
236,000000; 0,695257
235,000000; 0,699325
234,000000; 0,703149
233,000000; 0,707122
232,000000; 0,711192
231,000000; 0,715168
230,000000; 0,719131
229,000000; 0,723465
228,000000; 0,727543
227,000000; 0,731309
226,000000; 0,735177
225,000000; 0,738923
224,000000; 0,742114
223,000000; 0,744367
222,000000; 0,746505
221,000000; 0,747647
220,000000; 0,748425
219,000000; 0,748849
218,000000; 0,748884
217,000000; 0,748772
216,000000; 0,748444
215,000000; 0,747460
214,000000; 0,746506
213,000000; 0,745664
212,000000; 0,744499
211,000000; 0,742986
210,000000; 0,741242
209,000000; 0,739505
208,000000; 0,737144
207,000000; 0,734770
206,000000; 0,731591
205,000000; 0,728744
204,000000; 0,725779
203,000000; 0,722976
202,000000; 0,721530
201,000000; 0,719119
200,000000; 0,717173
199,000000; 0,715195
198,000000; 0,713531
197,000000; 0,710823
196,000000; 0,707360
195,000000; 0,702025
194,000000; 0,692720
193,000000; 0,683872
192,000000; 0,657801
191,000000; 0,633584
190,000000; 0,572687
