nm; A
700,000000; 0,125748
699,000000; 0,125748
698,000000; 0,125854
697,000000; 0,125835
696,000000; 0,125910
695,000000; 0,126035
694,000000; 0,126018
693,000000; 0,126081
692,000000; 0,126130
691,000000; 0,126237
690,000000; 0,126319
689,000000; 0,126350
688,000000; 0,126442
687,000000; 0,126493
686,000000; 0,126582
685,000000; 0,126676
684,000000; 0,126697
683,000000; 0,127404
682,000000; 0,127723
681,000000; 0,127792
680,000000; 0,127898
679,000000; 0,127940
678,000000; 0,127893
677,000000; 0,127933
676,000000; 0,128130
675,000000; 0,128126
674,000000; 0,128283
673,000000; 0,128328
672,000000; 0,128407
671,000000; 0,128527
670,000000; 0,128725
669,000000; 0,128830
668,000000; 0,128868
667,000000; 0,128918
666,000000; 0,129062
665,000000; 0,129169
664,000000; 0,129332
663,000000; 0,129456
662,000000; 0,129538
661,000000; 0,129507
660,000000; 0,129696
659,000000; 0,129784
658,000000; 0,129825
657,000000; 0,129958
656,000000; 0,130035
655,000000; 0,130016
654,000000; 0,130108
653,000000; 0,130209
652,000000; 0,130269
651,000000; 0,130396
650,000000; 0,130528
649,000000; 0,130527
648,000000; 0,130650
647,000000; 0,130793
646,000000; 0,130748
645,000000; 0,130907
644,000000; 0,131065
643,000000; 0,131161
642,000000; 0,131260
641,000000; 0,131357
640,000000; 0,131485
639,000000; 0,131591
638,000000; 0,131776
637,000000; 0,131832
636,000000; 0,131962
635,000000; 0,132005
634,000000; 0,132228
633,000000; 0,132254
632,000000; 0,132406
631,000000; 0,132543
630,000000; 0,132605
629,000000; 0,132755
628,000000; 0,132925
627,000000; 0,132981
626,000000; 0,133213
625,000000; 0,133307
624,000000; 0,133408
623,000000; 0,133481
622,000000; 0,133613
621,000000; 0,133752
620,000000; 0,133852
619,000000; 0,134041
618,000000; 0,134114
617,000000; 0,134226
616,000000; 0,134394
615,000000; 0,134484
614,000000; 0,134638
613,000000; 0,134747
612,000000; 0,134960
611,000000; 0,135043
610,000000; 0,135197
609,000000; 0,135301
608,000000; 0,135426
607,000000; 0,135591
606,000000; 0,135746
605,000000; 0,135884
604,000000; 0,135971
603,000000; 0,136190
602,000000; 0,136259
601,000000; 0,136328
600,000000; 0,136524
599,000000; 0,136520
598,000000; 0,136644
597,000000; 0,136686
596,000000; 0,136829
595,000000; 0,136933
594,000000; 0,137029
593,000000; 0,137077
592,000000; 0,137170
591,000000; 0,137272
590,000000; 0,137426
589,000000; 0,137459
588,000000; 0,137518
587,000000; 0,137626
586,000000; 0,137797
585,000000; 0,137826
584,000000; 0,138011
583,000000; 0,138023
582,000000; 0,138203
581,000000; 0,138244
580,000000; 0,138316
579,000000; 0,138431
578,000000; 0,138567
577,000000; 0,138768
576,000000; 0,138814
575,000000; 0,138894
574,000000; 0,138986
573,000000; 0,139135
572,000000; 0,139154
571,000000; 0,139245
570,000000; 0,139282
569,000000; 0,139402
568,000000; 0,139590
567,000000; 0,139639
566,000000; 0,139787
565,000000; 0,139907
564,000000; 0,139965
563,000000; 0,140020
562,000000; 0,140018
561,000000; 0,140178
560,000000; 0,140343
559,000000; 0,140395
558,000000; 0,139888
557,000000; 0,139929
556,000000; 0,140012
555,000000; 0,140202
554,000000; 0,140276
553,000000; 0,140413
552,000000; 0,140610
551,000000; 0,140764
550,000000; 0,140870
549,000000; 0,140956
548,000000; 0,141154
547,000000; 0,141283
546,000000; 0,141420
545,000000; 0,141490
544,000000; 0,141659
543,000000; 0,141892
542,000000; 0,142095
541,000000; 0,142158
540,000000; 0,142337
539,000000; 0,142529
538,000000; 0,142714
537,000000; 0,142817
536,000000; 0,143010
535,000000; 0,143152
534,000000; 0,143302
533,000000; 0,143457
532,000000; 0,143636
531,000000; 0,143809
530,000000; 0,143994
529,000000; 0,144146
528,000000; 0,144252
527,000000; 0,144441
526,000000; 0,144568
525,000000; 0,144798
524,000000; 0,144975
523,000000; 0,145212
522,000000; 0,145292
521,000000; 0,145524
520,000000; 0,145622
519,000000; 0,145837
518,000000; 0,145999
517,000000; 0,146213
516,000000; 0,146383
515,000000; 0,146604
514,000000; 0,146768
513,000000; 0,147053
512,000000; 0,147276
511,000000; 0,147450
510,000000; 0,147727
509,000000; 0,147804
508,000000; 0,148063
507,000000; 0,148156
506,000000; 0,148499
505,000000; 0,148713
504,000000; 0,148830
503,000000; 0,148956
502,000000; 0,149326
501,000000; 0,149471
500,000000; 0,149743
499,000000; 0,149860
498,000000; 0,150054
497,000000; 0,150203
496,000000; 0,150219
495,000000; 0,150454
494,000000; 0,150619
493,000000; 0,150809
492,000000; 0,150945
491,000000; 0,151141
490,000000; 0,151202
489,000000; 0,151502
488,000000; 0,151724
487,000000; 0,151901
486,000000; 0,152003
485,000000; 0,152075
484,000000; 0,152278
483,000000; 0,152394
482,000000; 0,152450
481,000000; 0,152537
480,000000; 0,152490
479,000000; 0,152698
478,000000; 0,152763
477,000000; 0,153056
476,000000; 0,153110
475,000000; 0,153299
474,000000; 0,153353
473,000000; 0,153508
472,000000; 0,153618
471,000000; 0,153878
470,000000; 0,153918
469,000000; 0,154143
468,000000; 0,154386
467,000000; 0,154352
466,000000; 0,154619
465,000000; 0,154692
464,000000; 0,154953
463,000000; 0,155008
462,000000; 0,155148
461,000000; 0,155414
460,000000; 0,155553
459,000000; 0,155692
458,000000; 0,156010
457,000000; 0,156107
456,000000; 0,156279
455,000000; 0,156584
454,000000; 0,156889
453,000000; 0,157082
452,000000; 0,157440
451,000000; 0,157567
450,000000; 0,157843
449,000000; 0,158035
448,000000; 0,158206
447,000000; 0,158584
446,000000; 0,158682
445,000000; 0,159003
444,000000; 0,159291
443,000000; 0,159462
442,000000; 0,159730
441,000000; 0,160045
440,000000; 0,160253
439,000000; 0,160407
438,000000; 0,160762
437,000000; 0,160913
436,000000; 0,161075
435,000000; 0,161474
434,000000; 0,161519
433,000000; 0,161701
432,000000; 0,161904
431,000000; 0,162088
430,000000; 0,162367
429,000000; 0,162477
428,000000; 0,162834
427,000000; 0,162927
426,000000; 0,163133
425,000000; 0,163367
424,000000; 0,163567
423,000000; 0,163858
422,000000; 0,164261
421,000000; 0,164580
420,000000; 0,164964
419,000000; 0,165324
418,000000; 0,165570
417,000000; 0,165885
416,000000; 0,166116
415,000000; 0,166204
414,000000; 0,166717
413,000000; 0,166974
412,000000; 0,167217
411,000000; 0,167494
410,000000; 0,167644
409,000000; 0,167926
408,000000; 0,168286
407,000000; 0,168517
406,000000; 0,168979
405,000000; 0,169274
404,000000; 0,169610
403,000000; 0,169870
402,000000; 0,170017
401,000000; 0,170348
400,000000; 0,170601
399,000000; 0,170935
398,000000; 0,171123
397,000000; 0,171552
396,000000; 0,171778
395,000000; 0,172092
394,000000; 0,172519
393,000000; 0,172600
392,000000; 0,173008
391,000000; 0,173300
390,000000; 0,173697
389,000000; 0,173996
388,000000; 0,174345
387,000000; 0,174522
386,000000; 0,174799
385,000000; 0,175092
384,000000; 0,176420
383,000000; 0,178309
382,000000; 0,178072
381,000000; 0,178580
380,000000; 0,178408
379,000000; 0,178735
378,000000; 0,178529
377,000000; 0,178744
376,000000; 0,178874
375,000000; 0,179258
374,000000; 0,179482
373,000000; 0,179662
372,000000; 0,179769
371,000000; 0,180147
370,000000; 0,180610
369,000000; 0,180613
368,000000; 0,180902
367,000000; 0,181299
366,000000; 0,181536
365,000000; 0,181952
364,000000; 0,182147
363,000000; 0,182253
362,000000; 0,182541
361,000000; 0,183070
360,000000; 0,183297
359,000000; 0,183471
358,000000; 0,183723
357,000000; 0,184259
356,000000; 0,184393
355,000000; 0,184796
354,000000; 0,185155
353,000000; 0,185363
352,000000; 0,185504
351,000000; 0,185904
350,000000; 0,186197
349,000000; 0,186575
348,000000; 0,186635
347,000000; 0,186882
346,000000; 0,187267
345,000000; 0,187379
344,000000; 0,187732
343,000000; 0,188092
342,000000; 0,188265
341,000000; 0,188713
340,000000; 0,189105
339,000000; 0,189315
338,000000; 0,189796
337,000000; 0,190187
336,000000; 0,190481
335,000000; 0,191068
334,000000; 0,191302
333,000000; 0,191693
332,000000; 0,192083
331,000000; 0,192568
330,000000; 0,192639
329,000000; 0,192934
328,000000; 0,192671
327,000000; 0,204652
326,000000; 0,205410
325,000000; 0,205339
324,000000; 0,205673
323,000000; 0,205818
322,000000; 0,206246
321,000000; 0,206512
320,000000; 0,206604
319,000000; 0,206669
318,000000; 0,207214
317,000000; 0,207299
316,000000; 0,207546
315,000000; 0,207836
314,000000; 0,208154
313,000000; 0,208572
312,000000; 0,208727
311,000000; 0,209037
310,000000; 0,209236
309,000000; 0,209686
308,000000; 0,209827
307,000000; 0,210201
306,000000; 0,210496
305,000000; 0,210738
304,000000; 0,211181
303,000000; 0,211386
302,000000; 0,211847
301,000000; 0,212207
300,000000; 0,212458
299,000000; 0,212727
298,000000; 0,213231
297,000000; 0,213607
296,000000; 0,213943
295,000000; 0,214333
294,000000; 0,214701
293,000000; 0,215142
292,000000; 0,215627
291,000000; 0,216093
290,000000; 0,216312
289,000000; 0,216795
288,000000; 0,217308
287,000000; 0,217609
286,000000; 0,218322
285,000000; 0,218677
284,000000; 0,219213
283,000000; 0,219456
282,000000; 0,220129
281,000000; 0,220381
280,000000; 0,221068
279,000000; 0,221265
278,000000; 0,221982
277,000000; 0,222307
276,000000; 0,222877
275,000000; 0,223308
274,000000; 0,223709
273,000000; 0,223950
272,000000; 0,224385
271,000000; 0,224889
270,000000; 0,225298
269,000000; 0,225535
268,000000; 0,225913
267,000000; 0,226439
266,000000; 0,226821
265,000000; 0,227153
264,000000; 0,227691
263,000000; 0,227891
262,000000; 0,228252
261,000000; 0,228657
260,000000; 0,229113
259,000000; 0,229723
258,000000; 0,229954
257,000000; 0,230611
256,000000; 0,231168
255,000000; 0,231876
254,000000; 0,232493
253,000000; 0,232952
252,000000; 0,233663
251,000000; 0,234456
250,000000; 0,235295
249,000000; 0,236274
248,000000; 0,237367
247,000000; 0,238311
246,000000; 0,239473
245,000000; 0,240808
244,000000; 0,241906
243,000000; 0,243383
242,000000; 0,244905
241,000000; 0,246381
240,000000; 0,247999
239,000000; 0,249615
238,000000; 0,251353
237,000000; 0,253118
236,000000; 0,254929
235,000000; 0,256624
234,000000; 0,258767
233,000000; 0,260855
232,000000; 0,263001
231,000000; 0,265010
230,000000; 0,267128
229,000000; 0,269063
228,000000; 0,271064
227,000000; 0,273080
226,000000; 0,275347
225,000000; 0,277464
224,000000; 0,279758
223,000000; 0,282144
222,000000; 0,285090
221,000000; 0,288230
220,000000; 0,291947
219,000000; 0,295821
218,000000; 0,300242
217,000000; 0,305124
216,000000; 0,310289
215,000000; 0,315689
214,000000; 0,321681
213,000000; 0,327864
212,000000; 0,334662
211,000000; 0,341962
210,000000; 0,350007
209,000000; 0,358782
208,000000; 0,368553
207,000000; 0,379438
206,000000; 0,391628
205,000000; 0,405661
204,000000; 0,422808
203,000000; 0,443433
202,000000; 0,469539
201,000000; 0,502399
200,000000; 0,545268
199,000000; 0,601201
198,000000; 0,671602
197,000000; 0,766258
196,000000; 0,886970
195,000000; 1,039120
194,000000; 1,237093
193,000000; 1,438182
192,000000; 1,703909
191,000000; 1,861703
190,000000; 1,948996
