nm; A
700,000000; 0,132836
699,000000; 0,132860
698,000000; 0,132995
697,000000; 0,133045
696,000000; 0,133151
695,000000; 0,133276
694,000000; 0,133323
693,000000; 0,133510
692,000000; 0,133795
691,000000; 0,134039
690,000000; 0,134280
689,000000; 0,134528
688,000000; 0,134756
687,000000; 0,134988
686,000000; 0,135054
685,000000; 0,135191
684,000000; 0,135242
683,000000; 0,135621
682,000000; 0,135718
681,000000; 0,135624
680,000000; 0,135726
679,000000; 0,135680
678,000000; 0,135749
677,000000; 0,135779
676,000000; 0,135944
675,000000; 0,135812
674,000000; 0,135910
673,000000; 0,136033
672,000000; 0,136203
671,000000; 0,136234
670,000000; 0,136226
669,000000; 0,136314
668,000000; 0,136522
667,000000; 0,136626
666,000000; 0,136934
665,000000; 0,136941
664,000000; 0,137217
663,000000; 0,137485
662,000000; 0,137661
661,000000; 0,137952
660,000000; 0,138162
659,000000; 0,138406
658,000000; 0,138503
657,000000; 0,138650
656,000000; 0,138853
655,000000; 0,139008
654,000000; 0,139176
653,000000; 0,139437
652,000000; 0,139490
651,000000; 0,139661
650,000000; 0,139677
649,000000; 0,139891
648,000000; 0,139908
647,000000; 0,140105
646,000000; 0,140034
645,000000; 0,140179
644,000000; 0,140213
643,000000; 0,140101
642,000000; 0,140236
641,000000; 0,140139
640,000000; 0,140237
639,000000; 0,140173
638,000000; 0,140128
637,000000; 0,140082
636,000000; 0,139962
635,000000; 0,139791
634,000000; 0,139707
633,000000; 0,139617
632,000000; 0,139386
631,000000; 0,139319
630,000000; 0,139146
629,000000; 0,138968
628,000000; 0,138832
627,000000; 0,138745
626,000000; 0,138513
625,000000; 0,138380
624,000000; 0,138250
623,000000; 0,138077
622,000000; 0,137872
621,000000; 0,137786
620,000000; 0,137563
619,000000; 0,137439
618,000000; 0,137370
617,000000; 0,137276
616,000000; 0,137190
615,000000; 0,137082
614,000000; 0,136982
613,000000; 0,136816
612,000000; 0,136697
611,000000; 0,136663
610,000000; 0,136409
609,000000; 0,136315
608,000000; 0,136161
607,000000; 0,136188
606,000000; 0,136118
605,000000; 0,136078
604,000000; 0,136074
603,000000; 0,136027
602,000000; 0,136006
601,000000; 0,136085
600,000000; 0,136087
599,000000; 0,136131
598,000000; 0,136059
597,000000; 0,136038
596,000000; 0,135957
595,000000; 0,135885
594,000000; 0,135812
593,000000; 0,135794
592,000000; 0,135686
591,000000; 0,135645
590,000000; 0,135681
589,000000; 0,135679
588,000000; 0,135580
587,000000; 0,135534
586,000000; 0,135452
585,000000; 0,135400
584,000000; 0,135342
583,000000; 0,135331
582,000000; 0,135213
581,000000; 0,135312
580,000000; 0,135256
579,000000; 0,135169
578,000000; 0,135280
577,000000; 0,135217
576,000000; 0,135172
575,000000; 0,135297
574,000000; 0,135147
573,000000; 0,135128
572,000000; 0,135141
571,000000; 0,135080
570,000000; 0,135097
569,000000; 0,135071
568,000000; 0,135125
567,000000; 0,134970
566,000000; 0,134927
565,000000; 0,135058
564,000000; 0,134903
563,000000; 0,134859
562,000000; 0,134727
561,000000; 0,134765
560,000000; 0,134670
559,000000; 0,134503
558,000000; 0,135066
557,000000; 0,135038
556,000000; 0,134969
555,000000; 0,135004
554,000000; 0,134995
553,000000; 0,135087
552,000000; 0,135052
551,000000; 0,135032
550,000000; 0,134937
549,000000; 0,135032
548,000000; 0,135016
547,000000; 0,134969
546,000000; 0,135007
545,000000; 0,135035
544,000000; 0,135043
543,000000; 0,134966
542,000000; 0,134835
541,000000; 0,134873
540,000000; 0,134722
539,000000; 0,134615
538,000000; 0,134517
537,000000; 0,134429
536,000000; 0,134421
535,000000; 0,134332
534,000000; 0,134319
533,000000; 0,134276
532,000000; 0,134336
531,000000; 0,134389
530,000000; 0,134321
529,000000; 0,134358
528,000000; 0,134249
527,000000; 0,134163
526,000000; 0,134244
525,000000; 0,134426
524,000000; 0,134564
523,000000; 0,134593
522,000000; 0,134606
521,000000; 0,134560
520,000000; 0,134681
519,000000; 0,134787
518,000000; 0,134798
517,000000; 0,134789
516,000000; 0,134948
515,000000; 0,134931
514,000000; 0,135074
513,000000; 0,135148
512,000000; 0,135274
511,000000; 0,135404
510,000000; 0,135412
509,000000; 0,135415
508,000000; 0,135609
507,000000; 0,135515
506,000000; 0,135550
505,000000; 0,135605
504,000000; 0,135611
503,000000; 0,135638
502,000000; 0,135722
501,000000; 0,135764
500,000000; 0,135747
499,000000; 0,135871
498,000000; 0,135831
497,000000; 0,135750
496,000000; 0,135793
495,000000; 0,135813
494,000000; 0,135813
493,000000; 0,135786
492,000000; 0,135707
491,000000; 0,135729
490,000000; 0,135562
489,000000; 0,135497
488,000000; 0,135506
487,000000; 0,135425
486,000000; 0,135234
485,000000; 0,135336
484,000000; 0,135315
483,000000; 0,135167
482,000000; 0,135212
481,000000; 0,135274
480,000000; 0,135135
479,000000; 0,135247
478,000000; 0,135261
477,000000; 0,135278
476,000000; 0,135299
475,000000; 0,135410
474,000000; 0,135559
473,000000; 0,135572
472,000000; 0,135704
471,000000; 0,135806
470,000000; 0,135921
469,000000; 0,136135
468,000000; 0,136136
467,000000; 0,136166
466,000000; 0,136415
465,000000; 0,136515
464,000000; 0,136585
463,000000; 0,136638
462,000000; 0,136866
461,000000; 0,136989
460,000000; 0,137055
459,000000; 0,137126
458,000000; 0,137412
457,000000; 0,137370
456,000000; 0,137586
455,000000; 0,137716
454,000000; 0,137825
453,000000; 0,137967
452,000000; 0,137997
451,000000; 0,138270
450,000000; 0,138248
449,000000; 0,138272
448,000000; 0,138358
447,000000; 0,138622
446,000000; 0,138601
445,000000; 0,138779
444,000000; 0,138866
443,000000; 0,138921
442,000000; 0,139083
441,000000; 0,139244
440,000000; 0,139029
439,000000; 0,139300
438,000000; 0,139404
437,000000; 0,139452
436,000000; 0,139574
435,000000; 0,139678
434,000000; 0,139869
433,000000; 0,139989
432,000000; 0,140242
431,000000; 0,140528
430,000000; 0,140764
429,000000; 0,141029
428,000000; 0,141444
427,000000; 0,141589
426,000000; 0,141849
425,000000; 0,142404
424,000000; 0,142588
423,000000; 0,142909
422,000000; 0,143227
421,000000; 0,144390
420,000000; 0,144491
419,000000; 0,144677
418,000000; 0,144860
417,000000; 0,145016
416,000000; 0,145214
415,000000; 0,145468
414,000000; 0,145618
413,000000; 0,145891
412,000000; 0,146021
411,000000; 0,146263
410,000000; 0,146212
409,000000; 0,146563
408,000000; 0,146744
407,000000; 0,147029
406,000000; 0,147396
405,000000; 0,147645
404,000000; 0,147913
403,000000; 0,148213
402,000000; 0,148666
401,000000; 0,149042
400,000000; 0,149522
399,000000; 0,149833
398,000000; 0,150284
397,000000; 0,150760
396,000000; 0,151169
395,000000; 0,151661
394,000000; 0,152084
393,000000; 0,152541
392,000000; 0,153033
391,000000; 0,153320
390,000000; 0,153802
389,000000; 0,154172
388,000000; 0,154614
387,000000; 0,155026
386,000000; 0,155501
385,000000; 0,155888
384,000000; 0,157012
383,000000; 0,158297
382,000000; 0,158280
381,000000; 0,158804
380,000000; 0,159038
379,000000; 0,159448
378,000000; 0,159754
377,000000; 0,160211
376,000000; 0,160643
375,000000; 0,161196
374,000000; 0,161807
373,000000; 0,162240
372,000000; 0,162876
371,000000; 0,163525
370,000000; 0,164084
369,000000; 0,164571
368,000000; 0,165459
367,000000; 0,165934
366,000000; 0,166898
365,000000; 0,167531
364,000000; 0,168229
363,000000; 0,168935
362,000000; 0,169588
361,000000; 0,170471
360,000000; 0,171100
359,000000; 0,171836
358,000000; 0,172569
357,000000; 0,173303
356,000000; 0,174277
355,000000; 0,174814
354,000000; 0,175913
353,000000; 0,176500
352,000000; 0,177331
351,000000; 0,178195
350,000000; 0,179118
349,000000; 0,180064
348,000000; 0,180646
347,000000; 0,181739
346,000000; 0,182817
345,000000; 0,183972
344,000000; 0,185172
343,000000; 0,186307
342,000000; 0,187804
341,000000; 0,189250
340,000000; 0,190463
339,000000; 0,191862
338,000000; 0,193353
337,000000; 0,195072
336,000000; 0,196641
335,000000; 0,198496
334,000000; 0,199973
333,000000; 0,202216
332,000000; 0,204046
331,000000; 0,206324
330,000000; 0,208492
329,000000; 0,210642
328,000000; 0,212486
327,000000; 0,224976
326,000000; 0,227704
325,000000; 0,230755
324,000000; 0,233454
323,000000; 0,236540
322,000000; 0,240062
321,000000; 0,243590
320,000000; 0,247210
319,000000; 0,251200
318,000000; 0,255348
317,000000; 0,259940
316,000000; 0,264918
315,000000; 0,270215
314,000000; 0,275899
313,000000; 0,282125
312,000000; 0,288650
311,000000; 0,295550
310,000000; 0,302572
309,000000; 0,310153
308,000000; 0,318257
307,000000; 0,327020
306,000000; 0,335834
305,000000; 0,345137
304,000000; 0,354742
303,000000; 0,364828
302,000000; 0,375258
301,000000; 0,386028
300,000000; 0,397393
299,000000; 0,408518
298,000000; 0,420592
297,000000; 0,432407
296,000000; 0,445017
295,000000; 0,458022
294,000000; 0,471928
293,000000; 0,486936
292,000000; 0,503811
291,000000; 0,522439
290,000000; 0,543312
289,000000; 0,566318
288,000000; 0,591115
287,000000; 0,616503
286,000000; 0,640948
285,000000; 0,662961
284,000000; 0,682566
283,000000; 0,700288
282,000000; 0,717443
281,000000; 0,735006
280,000000; 0,751661
279,000000; 0,766944
278,000000; 0,778559
277,000000; 0,785902
276,000000; 0,789885
275,000000; 0,792234
274,000000; 0,793976
273,000000; 0,794964
272,000000; 0,794352
271,000000; 0,792168
270,000000; 0,788045
269,000000; 0,782267
268,000000; 0,775608
267,000000; 0,767711
266,000000; 0,760386
265,000000; 0,752332
264,000000; 0,743901
263,000000; 0,735380
262,000000; 0,726861
261,000000; 0,718757
260,000000; 0,711277
259,000000; 0,704274
258,000000; 0,697819
257,000000; 0,691984
256,000000; 0,686753
255,000000; 0,682732
254,000000; 0,679991
253,000000; 0,679088
252,000000; 0,680479
251,000000; 0,684720
250,000000; 0,692881
249,000000; 0,706565
248,000000; 0,725819
247,000000; 0,753236
246,000000; 0,788632
245,000000; 0,833315
244,000000; 0,887719
243,000000; 0,950331
242,000000; 1,022272
241,000000; 1,100384
240,000000; 1,181183
239,000000; 1,262932
238,000000; 1,344462
237,000000; 1,425614
236,000000; 1,508237
235,000000; 1,590852
234,000000; 1,674256
233,000000; 1,750687
232,000000; 1,819472
231,000000; 1,882503
230,000000; 1,934371
229,000000; 1,977177
228,000000; 2,015146
227,000000; 2,042774
226,000000; 2,068901
225,000000; 2,089000
224,000000; 2,106337
223,000000; 2,119177
222,000000; 2,133496
221,000000; 2,147042
220,000000; 2,154878
219,000000; 2,160490
218,000000; 2,174911
217,000000; 2,183322
216,000000; 2,188549
215,000000; 2,189063
214,000000; 2,188488
213,000000; 2,187715
212,000000; 2,188350
211,000000; 2,179817
210,000000; 2,178633
209,000000; 2,173514
208,000000; 2,176974
207,000000; 2,170978
206,000000; 2,167037
205,000000; 2,157397
204,000000; 2,154884
203,000000; 2,143149
202,000000; 2,147308
201,000000; 2,147156
200,000000; 2,143706
