nm; A
700,000000; -0,021614
699,000000; -0,021627
698,000000; -0,021623
697,000000; -0,021604
696,000000; -0,021772
695,000000; -0,021638
694,000000; -0,021696
693,000000; -0,021631
692,000000; -0,021694
691,000000; -0,021688
690,000000; -0,021713
689,000000; -0,021764
688,000000; -0,021712
687,000000; -0,021703
686,000000; -0,021803
685,000000; -0,021719
684,000000; -0,021723
683,000000; -0,021644
682,000000; -0,021769
681,000000; -0,021720
680,000000; -0,021845
679,000000; -0,021835
678,000000; -0,021791
677,000000; -0,021729
676,000000; -0,021839
675,000000; -0,021805
674,000000; -0,021816
673,000000; -0,021828
672,000000; -0,021858
671,000000; -0,021905
670,000000; -0,021855
669,000000; -0,021856
668,000000; -0,021848
667,000000; -0,021921
666,000000; -0,021940
665,000000; -0,021955
664,000000; -0,021848
663,000000; -0,022020
662,000000; -0,021962
661,000000; -0,022062
660,000000; -0,021978
659,000000; -0,022001
658,000000; -0,022043
657,000000; -0,022043
656,000000; -0,022050
655,000000; -0,022089
654,000000; -0,022099
653,000000; -0,022081
652,000000; -0,022126
651,000000; -0,022231
650,000000; -0,022233
649,000000; -0,022190
648,000000; -0,022294
647,000000; -0,022272
646,000000; -0,022328
645,000000; -0,022303
644,000000; -0,022237
643,000000; -0,022293
642,000000; -0,022355
641,000000; -0,022427
640,000000; -0,022378
639,000000; -0,022426
638,000000; -0,022418
637,000000; -0,022418
636,000000; -0,022444
635,000000; -0,022548
634,000000; -0,022494
633,000000; -0,022520
632,000000; -0,022577
631,000000; -0,022612
630,000000; -0,022589
629,000000; -0,022664
628,000000; -0,022586
627,000000; -0,022644
626,000000; -0,022696
625,000000; -0,022647
624,000000; -0,022778
623,000000; -0,022746
622,000000; -0,022823
621,000000; -0,022829
620,000000; -0,022833
619,000000; -0,022863
618,000000; -0,022889
617,000000; -0,022862
616,000000; -0,022927
615,000000; -0,022949
614,000000; -0,022910
613,000000; -0,023010
612,000000; -0,023080
611,000000; -0,023071
610,000000; -0,023088
609,000000; -0,023133
608,000000; -0,023198
607,000000; -0,023194
606,000000; -0,023213
605,000000; -0,023246
604,000000; -0,023273
603,000000; -0,023334
602,000000; -0,023283
601,000000; -0,023386
600,000000; -0,023416
599,000000; -0,023398
598,000000; -0,023486
597,000000; -0,023531
596,000000; -0,023538
595,000000; -0,023501
594,000000; -0,023646
593,000000; -0,023582
592,000000; -0,023637
591,000000; -0,023643
590,000000; -0,023721
589,000000; -0,023708
588,000000; -0,023880
587,000000; -0,023816
586,000000; -0,023805
585,000000; -0,023864
584,000000; -0,023946
583,000000; -0,024056
582,000000; -0,024029
581,000000; -0,024073
580,000000; -0,024095
579,000000; -0,024175
578,000000; -0,024202
577,000000; -0,024175
576,000000; -0,024226
575,000000; -0,024333
574,000000; -0,024339
573,000000; -0,024378
572,000000; -0,024411
571,000000; -0,024488
570,000000; -0,024554
569,000000; -0,024553
568,000000; -0,024641
567,000000; -0,024614
566,000000; -0,024612
565,000000; -0,024679
564,000000; -0,024756
563,000000; -0,024756
562,000000; -0,024779
561,000000; -0,024861
560,000000; -0,024857
559,000000; -0,024925
558,000000; -0,024849
557,000000; -0,024892
556,000000; -0,024934
555,000000; -0,024957
554,000000; -0,024967
553,000000; -0,024944
552,000000; -0,024980
551,000000; -0,025125
550,000000; -0,025081
549,000000; -0,025193
548,000000; -0,025191
547,000000; -0,025208
546,000000; -0,025359
545,000000; -0,025322
544,000000; -0,025372
543,000000; -0,025322
542,000000; -0,025442
541,000000; -0,025450
540,000000; -0,025547
539,000000; -0,025528
538,000000; -0,025519
537,000000; -0,025640
536,000000; -0,025705
535,000000; -0,025698
534,000000; -0,025695
533,000000; -0,025818
532,000000; -0,025857
531,000000; -0,025909
530,000000; -0,025929
529,000000; -0,025992
528,000000; -0,025983
527,000000; -0,025995
526,000000; -0,026127
525,000000; -0,026235
524,000000; -0,026227
523,000000; -0,026333
522,000000; -0,026312
521,000000; -0,026417
520,000000; -0,026422
519,000000; -0,026549
518,000000; -0,026514
517,000000; -0,026560
516,000000; -0,026621
515,000000; -0,026628
514,000000; -0,026734
513,000000; -0,026776
512,000000; -0,026938
511,000000; -0,026945
510,000000; -0,026857
509,000000; -0,026904
508,000000; -0,027043
507,000000; -0,027050
506,000000; -0,027080
505,000000; -0,027097
504,000000; -0,027135
503,000000; -0,027246
502,000000; -0,027248
501,000000; -0,027371
500,000000; -0,027303
499,000000; -0,027400
498,000000; -0,027441
497,000000; -0,027419
496,000000; -0,027550
495,000000; -0,027467
494,000000; -0,027658
493,000000; -0,027571
492,000000; -0,027843
491,000000; -0,027775
490,000000; -0,027760
489,000000; -0,027891
488,000000; -0,027981
487,000000; -0,028064
486,000000; -0,028017
485,000000; -0,028028
484,000000; -0,028107
483,000000; -0,028144
482,000000; -0,028225
481,000000; -0,028177
480,000000; -0,028144
479,000000; -0,028213
478,000000; -0,028271
477,000000; -0,028346
476,000000; -0,028367
475,000000; -0,028463
474,000000; -0,028541
473,000000; -0,028565
472,000000; -0,028537
471,000000; -0,028696
470,000000; -0,028725
469,000000; -0,028690
468,000000; -0,028768
467,000000; -0,028787
466,000000; -0,028854
465,000000; -0,028990
464,000000; -0,028983
463,000000; -0,028850
462,000000; -0,028982
461,000000; -0,029030
460,000000; -0,029085
459,000000; -0,029090
458,000000; -0,029130
457,000000; -0,029164
456,000000; -0,029248
455,000000; -0,029353
454,000000; -0,029347
453,000000; -0,029392
452,000000; -0,029476
451,000000; -0,029594
450,000000; -0,029671
449,000000; -0,029617
448,000000; -0,029684
447,000000; -0,029757
446,000000; -0,029867
445,000000; -0,029864
444,000000; -0,030029
443,000000; -0,030078
442,000000; -0,030010
441,000000; -0,030472
440,000000; -0,030304
439,000000; -0,030369
438,000000; -0,030347
437,000000; -0,030350
436,000000; -0,030620
435,000000; -0,030606
434,000000; -0,030719
433,000000; -0,030838
432,000000; -0,030876
431,000000; -0,031027
430,000000; -0,031080
429,000000; -0,031034
428,000000; -0,031007
427,000000; -0,031171
426,000000; -0,031247
425,000000; -0,031296
424,000000; -0,031399
423,000000; -0,031431
422,000000; -0,031575
421,000000; -0,031421
420,000000; -0,031574
419,000000; -0,031674
418,000000; -0,031755
417,000000; -0,031779
416,000000; -0,031915
415,000000; -0,031964
414,000000; -0,031963
413,000000; -0,032033
412,000000; -0,032095
411,000000; -0,032149
410,000000; -0,032259
409,000000; -0,032377
408,000000; -0,032408
407,000000; -0,032488
406,000000; -0,032491
405,000000; -0,032710
404,000000; -0,032642
403,000000; -0,032777
402,000000; -0,032858
401,000000; -0,032879
400,000000; -0,032949
399,000000; -0,032992
398,000000; -0,033180
397,000000; -0,033265
396,000000; -0,033338
395,000000; -0,033370
394,000000; -0,033524
393,000000; -0,033558
392,000000; -0,033755
391,000000; -0,033849
390,000000; -0,033837
389,000000; -0,033925
388,000000; -0,034004
387,000000; -0,034091
386,000000; -0,034135
385,000000; -0,034311
384,000000; -0,034567
383,000000; -0,035076
382,000000; -0,034948
381,000000; -0,035099
380,000000; -0,035150
379,000000; -0,034930
378,000000; -0,035164
377,000000; -0,035234
376,000000; -0,035277
375,000000; -0,035289
374,000000; -0,035373
373,000000; -0,035397
372,000000; -0,035386
371,000000; -0,035528
370,000000; -0,035529
369,000000; -0,035569
368,000000; -0,035563
367,000000; -0,035768
366,000000; -0,035802
365,000000; -0,035696
364,000000; -0,035848
363,000000; -0,035990
362,000000; -0,035931
361,000000; -0,036048
360,000000; -0,036065
359,000000; -0,036100
358,000000; -0,036194
357,000000; -0,036265
356,000000; -0,036357
355,000000; -0,036274
354,000000; -0,036448
353,000000; -0,036463
352,000000; -0,036472
351,000000; -0,036413
350,000000; -0,036587
349,000000; -0,036642
348,000000; -0,036738
347,000000; -0,036858
346,000000; -0,036815
345,000000; -0,036978
344,000000; -0,036798
343,000000; -0,037039
342,000000; -0,037019
341,000000; -0,037051
340,000000; -0,037195
339,000000; -0,037100
338,000000; -0,037253
337,000000; -0,037357
336,000000; -0,037697
335,000000; -0,037449
334,000000; -0,037794
333,000000; -0,037734
332,000000; -0,038006
331,000000; -0,037734
330,000000; -0,038036
329,000000; -0,038122
328,000000; -0,038143
327,000000; -0,038672
326,000000; -0,038566
325,000000; -0,038736
324,000000; -0,038721
323,000000; -0,038931
322,000000; -0,039040
321,000000; -0,038858
320,000000; -0,039006
319,000000; -0,039172
318,000000; -0,039262
317,000000; -0,039438
316,000000; -0,039561
315,000000; -0,039589
314,000000; -0,039651
313,000000; -0,039682
312,000000; -0,039553
311,000000; -0,039640
310,000000; -0,039792
309,000000; -0,039985
308,000000; -0,040038
307,000000; -0,040073
306,000000; -0,040114
305,000000; -0,040118
304,000000; -0,040359
303,000000; -0,040413
302,000000; -0,040475
301,000000; -0,040654
300,000000; -0,040726
299,000000; -0,040741
298,000000; -0,040829
297,000000; -0,040937
296,000000; -0,041070
295,000000; -0,041231
294,000000; -0,041192
293,000000; -0,041325
292,000000; -0,041353
291,000000; -0,041442
290,000000; -0,041429
289,000000; -0,041416
288,000000; -0,041559
287,000000; -0,041642
286,000000; -0,041581
285,000000; -0,041755
284,000000; -0,041717
283,000000; -0,041809
282,000000; -0,041710
281,000000; -0,041809
280,000000; -0,041757
279,000000; -0,041803
278,000000; -0,041826
277,000000; -0,041857
276,000000; -0,041819
275,000000; -0,041745
274,000000; -0,041877
273,000000; -0,041868
272,000000; -0,041965
271,000000; -0,041917
270,000000; -0,041905
269,000000; -0,041961
268,000000; -0,041956
267,000000; -0,041877
266,000000; -0,042194
265,000000; -0,042020
264,000000; -0,042081
263,000000; -0,042237
262,000000; -0,042237
261,000000; -0,042242
260,000000; -0,042500
259,000000; -0,042575
258,000000; -0,042844
257,000000; -0,043019
256,000000; -0,042944
255,000000; -0,043108
254,000000; -0,043330
253,000000; -0,043524
252,000000; -0,043785
251,000000; -0,044058
250,000000; -0,044419
249,000000; -0,044676
248,000000; -0,045163
247,000000; -0,045608
246,000000; -0,046088
245,000000; -0,046609
244,000000; -0,047197
243,000000; -0,047581
242,000000; -0,048010
241,000000; -0,048419
240,000000; -0,048831
239,000000; -0,049242
238,000000; -0,049634
237,000000; -0,050099
236,000000; -0,050524
235,000000; -0,051010
234,000000; -0,051214
233,000000; -0,051669
232,000000; -0,051983
231,000000; -0,052172
230,000000; -0,052481
229,000000; -0,052763
228,000000; -0,053060
227,000000; -0,053347
226,000000; -0,053800
225,000000; -0,054200
224,000000; -0,054634
223,000000; -0,055154
222,000000; -0,055602
221,000000; -0,056108
220,000000; -0,056693
219,000000; -0,057188
218,000000; -0,057672
217,000000; -0,058041
216,000000; -0,058560
215,000000; -0,058862
214,000000; -0,059180
213,000000; -0,059329
212,000000; -0,059555
211,000000; -0,059620
210,000000; -0,059795
209,000000; -0,059951
208,000000; -0,059943
207,000000; -0,059810
206,000000; -0,059771
205,000000; -0,059560
204,000000; -0,059379
203,000000; -0,059191
202,000000; -0,058823
201,000000; -0,058632
200,000000; -0,058475
