nm; A
700,000000; 4,373486
699,000000; 4,294157
698,000000; 4,294047
697,000000; 4,373111
696,000000; 4,469826
695,000000; 4,293657
694,000000; 4,372669
693,000000; 4,293462
692,000000; 4,372452
691,000000; 4,117098
690,000000; 4,372286
689,000000; 4,292942
688,000000; 4,372068
687,000000; 4,371976
686,000000; 4,371843
685,000000; 4,292633
684,000000; 4,371696
683,000000; 4,468621
682,000000; 5,070703
681,000000; 5,070603
680,000000; 10,000000
679,000000; 5,070647
678,000000; 10,000000
677,000000; 10,000000
676,000000; 5,070367
675,000000; 4,593142
674,000000; 4,593061
673,000000; 10,000000
672,000000; 10,000000
671,000000; 5,069920
670,000000; 5,069894
669,000000; 5,069835
668,000000; 5,069738
667,000000; 4,370654
666,000000; 4,768553
665,000000; 5,069531
664,000000; 4,768535
663,000000; 10,000000
662,000000; 5,069416
661,000000; 4,768231
660,000000; 5,069235
659,000000; 4,768109
658,000000; 5,069050
657,000000; 5,068998
656,000000; 5,068935
655,000000; 4,767760
654,000000; 4,767697
653,000000; 4,767623
652,000000; 4,767523
651,000000; 4,591384
650,000000; 4,767427
649,000000; 5,068401
648,000000; 5,068338
647,000000; 5,068331
646,000000; 5,068216
645,000000; 5,068190
644,000000; 10,000000
643,000000; 4,590961
642,000000; 5,068015
641,000000; 5,067982
640,000000; 10,000000
639,000000; 4,766788
638,000000; 10,000000
637,000000; 10,000000
636,000000; 10,000000
635,000000; 4,465513
634,000000; 10,000000
633,000000; 5,067454
632,000000; 5,067439
631,000000; 5,067350
630,000000; 10,000000
629,000000; 5,067238
628,000000; 5,067186
627,000000; 4,465070
626,000000; 5,067160
625,000000; 5,066996
624,000000; 5,066982
623,000000; 5,066907
622,000000; 5,066821
621,000000; 10,000000
620,000000; 5,066691
619,000000; 4,589525
618,000000; 4,765527
617,000000; 5,066430
616,000000; 4,765341
615,000000; 5,066292
614,000000; 5,066233
613,000000; 5,066098
612,000000; 10,000000
611,000000; 4,366961
610,000000; 4,764785
609,000000; 5,065710
608,000000; 4,764550
607,000000; 4,764434
606,000000; 5,065333
605,000000; 5,065206
604,000000; 4,587876
603,000000; 4,462843
602,000000; 4,763645
601,000000; 5,064432
600,000000; 5,064274
599,000000; 4,586846
598,000000; 4,762671
597,000000; 5,063435
596,000000; 4,586081
595,000000; 4,460819
594,000000; 4,585498
593,000000; 4,585216
592,000000; 4,761003
591,000000; 4,760713
590,000000; 5,061483
589,000000; 4,584079
588,000000; 4,583780
587,000000; 4,361641
586,000000; 4,583255
585,000000; 4,458045
584,000000; 4,758885
583,000000; 4,582567
582,000000; 4,582419
581,000000; 4,758291
580,000000; 4,758098
579,000000; 4,360101
578,000000; 4,581893
577,000000; 4,757976
576,000000; 4,757870
575,000000; 5,058881
574,000000; 4,757870
573,000000; 4,581798
572,000000; 4,757923
571,000000; 4,456928
570,000000; 4,757999
569,000000; 4,758109
568,000000; 5,059264
567,000000; 4,758299
566,000000; 4,758390
565,000000; 4,758473
564,000000; 4,758583
563,000000; 4,281507
562,000000; 4,457674
561,000000; 4,457829
560,000000; 4,457863
559,000000; 4,582885
558,000000; 5,060226
557,000000; 4,759377
556,000000; 5,060464
555,000000; 4,583403
554,000000; 5,060660
553,000000; 5,060766
552,000000; 10,000000
551,000000; 10,000000
550,000000; 5,061045
549,000000; 10,000000
548,000000; 10,000000
547,000000; 4,459159
546,000000; 4,760226
545,000000; 5,061211
544,000000; 4,760204
543,000000; 4,760249
542,000000; 4,760226
541,000000; 4,584067
540,000000; 5,061238
539,000000; 4,459155
538,000000; 4,459125
537,000000; 5,061230
536,000000; 4,760215
535,000000; 5,061230
534,000000; 4,760234
533,000000; 4,584094
532,000000; 10,000000
531,000000; 4,459208
530,000000; 4,584131
529,000000; 4,760223
528,000000; 5,061211
527,000000; 4,584158
526,000000; 4,584116
525,000000; 10,000000
524,000000; 4,760257
523,000000; 4,459279
522,000000; 4,584150
521,000000; 4,459249
520,000000; 10,000000
519,000000; 4,760249
518,000000; 5,061283
517,000000; 10,000000
516,000000; 4,760257
515,000000; 4,283124
514,000000; 4,459215
513,000000; 4,584090
512,000000; 4,583996
511,000000; 5,061185
510,000000; 4,459121
509,000000; 4,583962
508,000000; 4,583977
507,000000; 4,362030
506,000000; 4,583924
505,000000; 4,583856
504,000000; 4,759959
503,000000; 4,759898
502,000000; 4,759943
501,000000; 4,583811
500,000000; 5,060890
499,000000; 4,361845
498,000000; 4,583701
497,000000; 4,583663
496,000000; 4,583546
495,000000; 5,060668
494,000000; 5,060645
493,000000; 4,583490
492,000000; 4,759551
491,000000; 4,282380
490,000000; 4,282312
489,000000; 4,759562
488,000000; 4,759543
487,000000; 4,583426
486,000000; 4,458460
485,000000; 5,060399
484,000000; 4,458343
483,000000; 4,106127
482,000000; 4,458188
481,000000; 4,457995
480,000000; 4,758995
479,000000; 4,582832
478,000000; 4,582779
477,000000; 5,059870
476,000000; 4,457746
475,000000; 4,360809
474,000000; 4,582567
473,000000; 4,582544
472,000000; 4,758556
471,000000; 4,457587
470,000000; 4,457454
469,000000; 4,457484
468,000000; 4,360612
467,000000; 4,156345
466,000000; 4,360510
465,000000; 5,059435
464,000000; 4,582272
463,000000; 4,582234
462,000000; 4,582147
461,000000; 4,457144
460,000000; 4,758166
459,000000; 4,104870
458,000000; 4,360097
457,000000; 4,581859
456,000000; 5,058859
455,000000; 4,359725
454,000000; 4,280419
453,000000; 4,757445
452,000000; 4,456283
451,000000; 3,979009
450,000000; 4,455986
449,000000; 4,455735
448,000000; 4,455496
447,000000; 4,756400
446,000000; 4,580039
445,000000; 4,358083
444,000000; 5,056874
443,000000; 3,852579
442,000000; 4,278491
441,000000; 4,211418
440,000000; 4,357550
439,000000; 4,755379
438,000000; 4,357447
437,000000; 4,755334
436,000000; 4,579277
435,000000; 4,015139
434,000000; 4,056444
433,000000; 10,000000
432,000000; 4,755578
431,000000; 4,357683
430,000000; 4,579723
429,000000; 4,357901
428,000000; 4,756042
427,000000; 3,911032
426,000000; 4,212218
425,000000; 4,756332
424,000000; 5,057506
423,000000; 4,756617
422,000000; 4,580674
421,000000; 4,455827
420,000000; 4,757096
419,000000; 4,213138
418,000000; 4,757347
417,000000; 4,280313
416,000000; 4,581457
415,000000; 4,581411
414,000000; 4,359786
413,000000; 4,581752
412,000000; 4,359908
411,000000; 4,280802
410,000000; 4,456954
409,000000; 4,457041
408,000000; 4,457200
407,000000; 4,582230
406,000000; 4,582446
405,000000; 4,582613
404,000000; 4,582787
403,000000; 4,156871
402,000000; 4,457874
401,000000; 4,582927
400,000000; 4,759097
399,000000; 4,458200
398,000000; 4,759316
397,000000; 5,060445
396,000000; 4,282373
395,000000; 4,215494
394,000000; 4,361841
393,000000; 4,458747
392,000000; 4,362015
391,000000; 4,362083
390,000000; 4,362192
389,000000; 4,362362
388,000000; 4,459328
387,000000; 4,158385
386,000000; 4,362596
385,000000; 4,216569
384,000000; 4,217965
383,000000; 10,000000
382,000000; 10,000000
381,000000; 10,000000
380,000000; 10,000000
379,000000; 4,110171
378,000000; 10,000000
377,000000; 10,000000
376,000000; 10,000000
375,000000; 10,000000
374,000000; 10,000000
373,000000; 4,763053
372,000000; 4,762900
371,000000; 3,917805
370,000000; 4,160795
369,000000; 10,000000
368,000000; 10,000000
367,000000; 5,063926
366,000000; 4,218832
365,000000; 10,000000
364,000000; 4,762963
363,000000; 3,859877
362,000000; 5,063960
361,000000; 10,000000
360,000000; 4,462113
359,000000; 4,762975
358,000000; 10,000000
357,000000; 4,763076
356,000000; 4,022590
355,000000; 3,721698
354,000000; 4,365155
353,000000; 4,109717
352,000000; 4,586692
351,000000; 4,461791
350,000000; 4,022320
349,000000; 4,022260
348,000000; 4,586343
347,000000; 3,720937
346,000000; 4,063288
345,000000; 4,284983
344,000000; 4,364153
343,000000; 4,021888
342,000000; 3,984145
341,000000; 10,000000
340,000000; 10,000000
339,000000; 3,484262
338,000000; 4,763080
337,000000; 4,462342
336,000000; 4,462525
335,000000; 4,764027
334,000000; 4,366240
333,000000; 4,024161
332,000000; 10,000000
331,000000; 3,509766
330,000000; 3,619127
329,000000; 4,288510
328,000000; 4,765810
327,000000; 4,371094
326,000000; 5,070603
325,000000; 4,593707
324,000000; 10,000000
323,000000; 3,749265
322,000000; 4,071978
321,000000; 4,595353
320,000000; 4,595581
319,000000; 10,000000
318,000000; 10,000000
317,000000; 4,374877
316,000000; 4,296113
315,000000; 3,928509
314,000000; 4,598046
313,000000; 10,000000
312,000000; 10,000000
311,000000; 10,000000
310,000000; 10,000000
309,000000; 10,000000
308,000000; 10,000000
307,000000; 3,735523
306,000000; 4,379324
305,000000; 5,078529
304,000000; 4,175776
303,000000; 10,000000
302,000000; 4,301399
301,000000; 4,602671
300,000000; 10,000000
299,000000; 3,876175
298,000000; 5,080569
297,000000; 10,000000
296,000000; 10,000000
295,000000; 5,081246
294,000000; 4,604316
293,000000; 5,081642
292,000000; 10,000000
291,000000; 3,803561
290,000000; 4,480391
289,000000; 10,000000
288,000000; 10,000000
287,000000; 4,606184
286,000000; 4,481686
285,000000; 10,000000
284,000000; 4,482334
283,000000; 3,805919
282,000000; 4,784061
281,000000; 4,784307
280,000000; 5,085733
279,000000; 10,000000
278,000000; 10,000000
277,000000; 10,000000
276,000000; 10,000000
275,000000; 4,046254
274,000000; 10,000000
273,000000; 10,000000
272,000000; 10,000000
271,000000; 10,000000
270,000000; 10,000000
269,000000; 10,000000
268,000000; 10,000000
267,000000; 4,137034
266,000000; 5,091801
265,000000; 10,000000
264,000000; 10,000000
263,000000; 10,000000
262,000000; 4,793001
261,000000; 10,000000
260,000000; 10,000000
259,000000; 4,493914
258,000000; 10,000000
257,000000; 10,000000
256,000000; 10,000000
255,000000; 10,000000
254,000000; 5,099860
253,000000; 10,000000
252,000000; 4,800731
251,000000; 4,801853
250,000000; 10,000000
249,000000; 10,000000
248,000000; 10,000000
247,000000; 5,108896
246,000000; 10,000000
245,000000; 10,000000
244,000000; 10,000000
243,000000; 4,416797
242,000000; 10,000000
241,000000; 10,000000
240,000000; 5,121064
239,000000; 10,000000
238,000000; 5,124622
237,000000; 4,825449
236,000000; 10,000000
235,000000; 4,227302
234,000000; 10,000000
233,000000; 4,833459
232,000000; 4,437636
231,000000; 4,661529
230,000000; 4,362768
229,000000; 5,143046
228,000000; 4,446332
227,000000; 4,106256
226,000000; 4,849100
225,000000; 10,000000
224,000000; 5,155063
223,000000; 10,000000
222,000000; 4,859469
221,000000; 10,000000
220,000000; 5,166782
219,000000; 4,215805
218,000000; 4,474709
217,000000; 10,000000
216,000000; 4,579352
215,000000; 4,282452
214,000000; 10,000000
213,000000; 4,415983
212,000000; 5,198555
211,000000; 4,161637
210,000000; 4,730658
209,000000; 4,610658
208,000000; 10,000000
207,000000; 4,444719
206,000000; 5,228490
205,000000; 4,234565
204,000000; 4,286614
203,000000; 4,016721
202,000000; 4,175260
201,000000; 4,262392
200,000000; 4,366962
199,000000; 4,579399
198,000000; 4,140160
197,000000; 4,517627
196,000000; 4,049584
195,000000; 3,867941
194,000000; 4,634616
193,000000; 3,673603
192,000000; 10,000000
191,000000; 3,479320
190,000000; 10,000000
