nm; A
700,000000; 0,069526
699,000000; 0,069543
698,000000; 0,069659
697,000000; 0,069688
696,000000; 0,069748
695,000000; 0,069735
694,000000; 0,069832
693,000000; 0,069810
692,000000; 0,069858
691,000000; 0,069924
690,000000; 0,070046
689,000000; 0,069957
688,000000; 0,070082
687,000000; 0,070172
686,000000; 0,070138
685,000000; 0,070188
684,000000; 0,070167
683,000000; 0,070565
682,000000; 0,070808
681,000000; 0,070668
680,000000; 0,070826
679,000000; 0,070839
678,000000; 0,070858
677,000000; 0,070952
676,000000; 0,071066
675,000000; 0,070919
674,000000; 0,071058
673,000000; 0,071061
672,000000; 0,071199
671,000000; 0,071202
670,000000; 0,071201
669,000000; 0,071377
668,000000; 0,071470
667,000000; 0,071495
666,000000; 0,071559
665,000000; 0,071597
664,000000; 0,071582
663,000000; 0,071735
662,000000; 0,071756
661,000000; 0,071758
660,000000; 0,071849
659,000000; 0,072067
658,000000; 0,072019
657,000000; 0,071980
656,000000; 0,072215
655,000000; 0,072172
654,000000; 0,072254
653,000000; 0,072409
652,000000; 0,072412
651,000000; 0,072430
650,000000; 0,072456
649,000000; 0,072555
648,000000; 0,072615
647,000000; 0,072794
646,000000; 0,072743
645,000000; 0,072921
644,000000; 0,072855
643,000000; 0,072964
642,000000; 0,073106
641,000000; 0,073156
640,000000; 0,073181
639,000000; 0,073292
638,000000; 0,073330
637,000000; 0,073355
636,000000; 0,073518
635,000000; 0,073557
634,000000; 0,073592
633,000000; 0,073691
632,000000; 0,073762
631,000000; 0,073866
630,000000; 0,073829
629,000000; 0,073990
628,000000; 0,074050
627,000000; 0,074168
626,000000; 0,074202
625,000000; 0,074243
624,000000; 0,074396
623,000000; 0,074433
622,000000; 0,074464
621,000000; 0,074597
620,000000; 0,074598
619,000000; 0,074633
618,000000; 0,074796
617,000000; 0,074843
616,000000; 0,074959
615,000000; 0,075037
614,000000; 0,075061
613,000000; 0,075095
612,000000; 0,075250
611,000000; 0,075346
610,000000; 0,075237
609,000000; 0,075414
608,000000; 0,075432
607,000000; 0,075592
606,000000; 0,075616
605,000000; 0,075661
604,000000; 0,075777
603,000000; 0,075784
602,000000; 0,075904
601,000000; 0,075909
600,000000; 0,075994
599,000000; 0,076106
598,000000; 0,076119
597,000000; 0,076160
596,000000; 0,076230
595,000000; 0,076247
594,000000; 0,076293
593,000000; 0,076376
592,000000; 0,076373
591,000000; 0,076419
590,000000; 0,076476
589,000000; 0,076599
588,000000; 0,076536
587,000000; 0,076646
586,000000; 0,076666
585,000000; 0,076701
584,000000; 0,076726
583,000000; 0,076786
582,000000; 0,076787
581,000000; 0,076979
580,000000; 0,076955
579,000000; 0,076938
578,000000; 0,077141
577,000000; 0,077081
576,000000; 0,077080
575,000000; 0,077246
574,000000; 0,077219
573,000000; 0,077286
572,000000; 0,077390
571,000000; 0,077399
570,000000; 0,077466
569,000000; 0,077549
568,000000; 0,077534
567,000000; 0,077512
566,000000; 0,077652
565,000000; 0,077820
564,000000; 0,077723
563,000000; 0,077808
562,000000; 0,077805
561,000000; 0,077950
560,000000; 0,077910
559,000000; 0,077986
558,000000; 0,077750
557,000000; 0,077738
556,000000; 0,077728
555,000000; 0,077892
554,000000; 0,077946
553,000000; 0,078135
552,000000; 0,078086
551,000000; 0,078159
550,000000; 0,078136
549,000000; 0,078368
548,000000; 0,078386
547,000000; 0,078315
546,000000; 0,078504
545,000000; 0,078608
544,000000; 0,078644
543,000000; 0,078751
542,000000; 0,078711
541,000000; 0,078933
540,000000; 0,079017
539,000000; 0,079034
538,000000; 0,079109
537,000000; 0,079151
536,000000; 0,079341
535,000000; 0,079346
534,000000; 0,079422
533,000000; 0,079562
532,000000; 0,079593
531,000000; 0,079667
530,000000; 0,079743
529,000000; 0,079869
528,000000; 0,079949
527,000000; 0,079988
526,000000; 0,080107
525,000000; 0,080193
524,000000; 0,080255
523,000000; 0,080403
522,000000; 0,080405
521,000000; 0,080483
520,000000; 0,080556
519,000000; 0,080591
518,000000; 0,080680
517,000000; 0,080732
516,000000; 0,080914
515,000000; 0,080865
514,000000; 0,081070
513,000000; 0,081082
512,000000; 0,081185
511,000000; 0,081380
510,000000; 0,081314
509,000000; 0,081475
508,000000; 0,081546
507,000000; 0,081641
506,000000; 0,081647
505,000000; 0,081908
504,000000; 0,081991
503,000000; 0,082036
502,000000; 0,082199
501,000000; 0,082216
500,000000; 0,082318
499,000000; 0,082528
498,000000; 0,082500
497,000000; 0,082646
496,000000; 0,082640
495,000000; 0,082628
494,000000; 0,082817
493,000000; 0,082852
492,000000; 0,082948
491,000000; 0,083066
490,000000; 0,083151
489,000000; 0,083133
488,000000; 0,083332
487,000000; 0,083454
486,000000; 0,083440
485,000000; 0,083520
484,000000; 0,083671
483,000000; 0,083730
482,000000; 0,083768
481,000000; 0,083908
480,000000; 0,083952
479,000000; 0,084047
478,000000; 0,084144
477,000000; 0,084201
476,000000; 0,084309
475,000000; 0,084231
474,000000; 0,084558
473,000000; 0,084511
472,000000; 0,084617
471,000000; 0,084684
470,000000; 0,084754
469,000000; 0,084886
468,000000; 0,084930
467,000000; 0,084982
466,000000; 0,085049
465,000000; 0,085136
464,000000; 0,085165
463,000000; 0,085303
462,000000; 0,085475
461,000000; 0,085466
460,000000; 0,085527
459,000000; 0,085627
458,000000; 0,085810
457,000000; 0,085696
456,000000; 0,085849
455,000000; 0,086015
454,000000; 0,086096
453,000000; 0,086155
452,000000; 0,086319
451,000000; 0,086567
450,000000; 0,086626
449,000000; 0,086746
448,000000; 0,086819
447,000000; 0,087114
446,000000; 0,087069
445,000000; 0,087165
444,000000; 0,087324
443,000000; 0,087446
442,000000; 0,087621
441,000000; 0,087862
440,000000; 0,087752
439,000000; 0,087954
438,000000; 0,088074
437,000000; 0,088070
436,000000; 0,088152
435,000000; 0,088400
434,000000; 0,088398
433,000000; 0,088389
432,000000; 0,088627
431,000000; 0,088784
430,000000; 0,088812
429,000000; 0,088884
428,000000; 0,089085
427,000000; 0,089072
426,000000; 0,089197
425,000000; 0,089300
424,000000; 0,089293
423,000000; 0,089400
422,000000; 0,089572
421,000000; 0,089741
420,000000; 0,089845
419,000000; 0,089868
418,000000; 0,089997
417,000000; 0,090064
416,000000; 0,090172
415,000000; 0,090497
414,000000; 0,090627
413,000000; 0,090815
412,000000; 0,090833
411,000000; 0,091087
410,000000; 0,090912
409,000000; 0,091149
408,000000; 0,091151
407,000000; 0,091367
406,000000; 0,091539
405,000000; 0,091749
404,000000; 0,091825
403,000000; 0,091964
402,000000; 0,092006
401,000000; 0,092218
400,000000; 0,092305
399,000000; 0,092441
398,000000; 0,092546
397,000000; 0,092769
396,000000; 0,092798
395,000000; 0,093095
394,000000; 0,093102
393,000000; 0,093344
392,000000; 0,093460
391,000000; 0,093577
390,000000; 0,093683
389,000000; 0,093880
388,000000; 0,094012
387,000000; 0,094202
386,000000; 0,094378
385,000000; 0,094514
384,000000; 0,095900
383,000000; 0,096979
382,000000; 0,096837
381,000000; 0,096908
380,000000; 0,096809
379,000000; 0,096644
378,000000; 0,096607
377,000000; 0,096648
376,000000; 0,096591
375,000000; 0,096645
374,000000; 0,096905
373,000000; 0,096945
372,000000; 0,097085
371,000000; 0,097231
370,000000; 0,097275
369,000000; 0,097401
368,000000; 0,097512
367,000000; 0,097803
366,000000; 0,097984
365,000000; 0,098160
364,000000; 0,098253
363,000000; 0,098379
362,000000; 0,098562
361,000000; 0,098795
360,000000; 0,098782
359,000000; 0,098992
358,000000; 0,099310
357,000000; 0,099422
356,000000; 0,099561
355,000000; 0,099618
354,000000; 0,099973
353,000000; 0,099943
352,000000; 0,100105
351,000000; 0,100184
350,000000; 0,100404
349,000000; 0,100671
348,000000; 0,100635
347,000000; 0,100804
346,000000; 0,100979
345,000000; 0,101102
344,000000; 0,101249
343,000000; 0,101463
342,000000; 0,101526
341,000000; 0,101801
340,000000; 0,101985
339,000000; 0,102091
338,000000; 0,102165
337,000000; 0,102286
336,000000; 0,102372
335,000000; 0,102937
334,000000; 0,102755
333,000000; 0,103081
332,000000; 0,103076
331,000000; 0,103325
330,000000; 0,103323
329,000000; 0,103458
328,000000; 0,103398
327,000000; 0,110148
326,000000; 0,110355
325,000000; 0,110524
324,000000; 0,110368
323,000000; 0,110288
322,000000; 0,110335
321,000000; 0,110681
320,000000; 0,110478
319,000000; 0,110706
318,000000; 0,110561
317,000000; 0,110585
316,000000; 0,110436
315,000000; 0,110749
314,000000; 0,110822
313,000000; 0,110776
312,000000; 0,110848
311,000000; 0,111002
310,000000; 0,110899
309,000000; 0,110892
308,000000; 0,111117
307,000000; 0,111193
306,000000; 0,111137
305,000000; 0,111346
304,000000; 0,111244
303,000000; 0,111460
302,000000; 0,111456
301,000000; 0,111573
300,000000; 0,111808
299,000000; 0,111875
298,000000; 0,112177
297,000000; 0,112122
296,000000; 0,112438
295,000000; 0,112578
294,000000; 0,112736
293,000000; 0,112881
292,000000; 0,113177
291,000000; 0,113159
290,000000; 0,113191
289,000000; 0,113633
288,000000; 0,113755
287,000000; 0,113978
286,000000; 0,114206
285,000000; 0,114381
284,000000; 0,114501
283,000000; 0,114687
282,000000; 0,114802
281,000000; 0,115256
280,000000; 0,115355
279,000000; 0,115463
278,000000; 0,115701
277,000000; 0,115977
276,000000; 0,116196
275,000000; 0,116271
274,000000; 0,116527
273,000000; 0,116621
272,000000; 0,116720
271,000000; 0,116836
270,000000; 0,116830
269,000000; 0,116968
268,000000; 0,117148
267,000000; 0,116981
266,000000; 0,116934
265,000000; 0,117104
264,000000; 0,117169
263,000000; 0,117220
262,000000; 0,117134
261,000000; 0,117255
260,000000; 0,117223
259,000000; 0,117327
258,000000; 0,117299
257,000000; 0,117197
256,000000; 0,117335
255,000000; 0,117368
254,000000; 0,117284
253,000000; 0,117433
252,000000; 0,117414
251,000000; 0,117459
250,000000; 0,117509
249,000000; 0,117677
248,000000; 0,117919
247,000000; 0,118056
246,000000; 0,118266
245,000000; 0,118255
244,000000; 0,118365
243,000000; 0,118645
242,000000; 0,119123
241,000000; 0,119634
240,000000; 0,120261
239,000000; 0,120837
238,000000; 0,121535
237,000000; 0,122024
236,000000; 0,122725
235,000000; 0,123436
234,000000; 0,124129
233,000000; 0,124864
232,000000; 0,125657
231,000000; 0,126469
230,000000; 0,126977
229,000000; 0,127776
228,000000; 0,128134
227,000000; 0,128413
226,000000; 0,128595
225,000000; 0,128982
224,000000; 0,129297
223,000000; 0,129786
222,000000; 0,130359
221,000000; 0,131025
220,000000; 0,131952
219,000000; 0,133007
218,000000; 0,134357
217,000000; 0,136226
216,000000; 0,137565
215,000000; 0,139400
214,000000; 0,141581
213,000000; 0,143853
212,000000; 0,146621
211,000000; 0,149952
210,000000; 0,153690
209,000000; 0,158199
208,000000; 0,163177
207,000000; 0,169253
206,000000; 0,176295
205,000000; 0,185426
204,000000; 0,196691
203,000000; 0,211528
202,000000; 0,230546
201,000000; 0,256685
200,000000; 0,291972
