nm; A
700,000000; 0,014141
699,000000; 0,014209
698,000000; 0,014216
697,000000; 0,014272
696,000000; 0,014251
695,000000; 0,014368
694,000000; 0,014365
693,000000; 0,014324
692,000000; 0,014465
691,000000; 0,014538
690,000000; 0,014606
689,000000; 0,014616
688,000000; 0,014641
687,000000; 0,014669
686,000000; 0,014724
685,000000; 0,014757
684,000000; 0,014867
683,000000; 0,014853
682,000000; 0,014931
681,000000; 0,014963
680,000000; 0,014997
679,000000; 0,015049
678,000000; 0,015003
677,000000; 0,015124
676,000000; 0,015229
675,000000; 0,015297
674,000000; 0,015236
673,000000; 0,015317
672,000000; 0,015393
671,000000; 0,015426
670,000000; 0,015437
669,000000; 0,015437
668,000000; 0,015529
667,000000; 0,015572
666,000000; 0,015521
665,000000; 0,015798
664,000000; 0,015729
663,000000; 0,015908
662,000000; 0,015805
661,000000; 0,015883
660,000000; 0,015969
659,000000; 0,016018
658,000000; 0,016139
657,000000; 0,016093
656,000000; 0,016215
655,000000; 0,016329
654,000000; 0,016350
653,000000; 0,016387
652,000000; 0,016517
651,000000; 0,016540
650,000000; 0,016487
649,000000; 0,016622
648,000000; 0,016595
647,000000; 0,016646
646,000000; 0,016741
645,000000; 0,016759
644,000000; 0,016885
643,000000; 0,016875
642,000000; 0,016945
641,000000; 0,017063
640,000000; 0,017059
639,000000; 0,017243
638,000000; 0,017262
637,000000; 0,017312
636,000000; 0,017308
635,000000; 0,017438
634,000000; 0,017466
633,000000; 0,017532
632,000000; 0,017665
631,000000; 0,017609
630,000000; 0,017785
629,000000; 0,017786
628,000000; 0,017806
627,000000; 0,017924
626,000000; 0,018014
625,000000; 0,018063
624,000000; 0,018183
623,000000; 0,018252
622,000000; 0,018301
621,000000; 0,018408
620,000000; 0,018391
619,000000; 0,018565
618,000000; 0,018542
617,000000; 0,018579
616,000000; 0,018660
615,000000; 0,018724
614,000000; 0,018792
613,000000; 0,018793
612,000000; 0,018964
611,000000; 0,018932
610,000000; 0,019084
609,000000; 0,019097
608,000000; 0,019167
607,000000; 0,019193
606,000000; 0,019314
605,000000; 0,019325
604,000000; 0,019484
603,000000; 0,019551
602,000000; 0,019736
601,000000; 0,019764
600,000000; 0,019872
599,000000; 0,019987
598,000000; 0,020083
597,000000; 0,020108
596,000000; 0,020293
595,000000; 0,020423
594,000000; 0,020505
593,000000; 0,020665
592,000000; 0,020689
591,000000; 0,020884
590,000000; 0,020921
589,000000; 0,021054
588,000000; 0,021199
587,000000; 0,021257
586,000000; 0,021340
585,000000; 0,021532
584,000000; 0,021639
583,000000; 0,021650
582,000000; 0,021818
581,000000; 0,021835
580,000000; 0,022016
579,000000; 0,022013
578,000000; 0,022223
577,000000; 0,022274
576,000000; 0,022387
575,000000; 0,022541
574,000000; 0,022604
573,000000; 0,022710
572,000000; 0,022785
571,000000; 0,022948
570,000000; 0,023034
569,000000; 0,023181
568,000000; 0,023248
567,000000; 0,023396
566,000000; 0,023442
565,000000; 0,023576
564,000000; 0,023680
563,000000; 0,023860
562,000000; 0,023892
561,000000; 0,024039
560,000000; 0,024124
559,000000; 0,024212
558,000000; 0,024260
557,000000; 0,024412
556,000000; 0,024516
555,000000; 0,024637
554,000000; 0,024720
553,000000; 0,024909
552,000000; 0,024869
551,000000; 0,025042
550,000000; 0,025214
549,000000; 0,025267
548,000000; 0,025431
547,000000; 0,025525
546,000000; 0,025604
545,000000; 0,025759
544,000000; 0,025824
543,000000; 0,025948
542,000000; 0,026194
541,000000; 0,026212
540,000000; 0,026409
539,000000; 0,026533
538,000000; 0,026631
537,000000; 0,026797
536,000000; 0,026958
535,000000; 0,027084
534,000000; 0,027160
533,000000; 0,027296
532,000000; 0,027472
531,000000; 0,027637
530,000000; 0,027831
529,000000; 0,027895
528,000000; 0,028100
527,000000; 0,028260
526,000000; 0,028283
525,000000; 0,028515
524,000000; 0,028618
523,000000; 0,028766
522,000000; 0,028931
521,000000; 0,029130
520,000000; 0,029239
519,000000; 0,029430
518,000000; 0,029604
517,000000; 0,029736
516,000000; 0,029928
515,000000; 0,030068
514,000000; 0,030324
513,000000; 0,030482
512,000000; 0,030644
511,000000; 0,030781
510,000000; 0,030984
509,000000; 0,031056
508,000000; 0,031316
507,000000; 0,031612
506,000000; 0,031717
505,000000; 0,032001
504,000000; 0,032027
503,000000; 0,032270
502,000000; 0,032412
501,000000; 0,032631
500,000000; 0,032771
499,000000; 0,033053
498,000000; 0,033260
497,000000; 0,033459
496,000000; 0,033601
495,000000; 0,033889
494,000000; 0,033987
493,000000; 0,034219
492,000000; 0,034402
491,000000; 0,034638
490,000000; 0,034890
489,000000; 0,035073
488,000000; 0,035327
487,000000; 0,035397
486,000000; 0,035627
485,000000; 0,035811
484,000000; 0,036020
483,000000; 0,036233
482,000000; 0,036440
481,000000; 0,036597
480,000000; 0,036885
479,000000; 0,037020
478,000000; 0,037364
477,000000; 0,037521
476,000000; 0,037662
475,000000; 0,037963
474,000000; 0,038260
473,000000; 0,038341
472,000000; 0,038618
471,000000; 0,038828
470,000000; 0,038967
469,000000; 0,039180
468,000000; 0,039362
467,000000; 0,039813
466,000000; 0,040104
465,000000; 0,040154
464,000000; 0,040464
463,000000; 0,040756
462,000000; 0,041019
461,000000; 0,041123
460,000000; 0,041481
459,000000; 0,041795
458,000000; 0,042059
457,000000; 0,042307
456,000000; 0,042543
455,000000; 0,042950
454,000000; 0,043209
453,000000; 0,043517
452,000000; 0,043818
451,000000; 0,044075
450,000000; 0,044465
449,000000; 0,044691
448,000000; 0,045131
447,000000; 0,045484
446,000000; 0,045836
445,000000; 0,046217
444,000000; 0,046741
443,000000; 0,046964
442,000000; 0,047396
441,000000; 0,047855
440,000000; 0,048050
439,000000; 0,048479
438,000000; 0,048853
437,000000; 0,049298
436,000000; 0,049666
435,000000; 0,050059
434,000000; 0,050469
433,000000; 0,050811
432,000000; 0,051316
431,000000; 0,051749
430,000000; 0,052244
429,000000; 0,052551
428,000000; 0,052981
427,000000; 0,053540
426,000000; 0,053973
425,000000; 0,054482
424,000000; 0,054827
423,000000; 0,055284
422,000000; 0,055792
421,000000; 0,056143
420,000000; 0,056596
419,000000; 0,057028
418,000000; 0,057509
417,000000; 0,058051
416,000000; 0,058543
415,000000; 0,058975
414,000000; 0,059365
413,000000; 0,059832
412,000000; 0,060433
411,000000; 0,060899
410,000000; 0,061390
409,000000; 0,061945
408,000000; 0,062315
407,000000; 0,062802
406,000000; 0,063443
405,000000; 0,063751
404,000000; 0,064332
403,000000; 0,064874
402,000000; 0,065356
401,000000; 0,065834
400,000000; 0,066353
399,000000; 0,066904
398,000000; 0,067358
397,000000; 0,067965
396,000000; 0,068559
395,000000; 0,069198
394,000000; 0,069649
393,000000; 0,070436
392,000000; 0,070726
391,000000; 0,071515
390,000000; 0,072079
389,000000; 0,072617
388,000000; 0,073328
387,000000; 0,073926
386,000000; 0,074689
385,000000; 0,075413
384,000000; 0,076175
383,000000; 0,076724
382,000000; 0,077542
381,000000; 0,077981
380,000000; 0,078977
379,000000; 0,079161
378,000000; 0,080132
377,000000; 0,080706
376,000000; 0,081394
375,000000; 0,082127
374,000000; 0,082740
373,000000; 0,083450
372,000000; 0,084070
371,000000; 0,084908
370,000000; 0,085267
369,000000; 0,085900
368,000000; 0,086656
367,000000; 0,087255
366,000000; 0,087780
365,000000; 0,088810
364,000000; 0,089202
363,000000; 0,089860
362,000000; 0,090467
361,000000; 0,091139
360,000000; 0,091777
359,000000; 0,092396
358,000000; 0,092956
357,000000; 0,093556
356,000000; 0,094215
355,000000; 0,094963
354,000000; 0,095567
353,000000; 0,095952
352,000000; 0,096649
351,000000; 0,097115
350,000000; 0,097847
349,000000; 0,098384
348,000000; 0,099075
347,000000; 0,099676
346,000000; 0,100410
345,000000; 0,100856
344,000000; 0,101719
343,000000; 0,102564
342,000000; 0,103414
341,000000; 0,104166
340,000000; 0,105408
339,000000; 0,106512
338,000000; 0,107886
337,000000; 0,109773
336,000000; 0,111975
335,000000; 0,114530
334,000000; 0,117506
333,000000; 0,121451
332,000000; 0,126345
331,000000; 0,132268
330,000000; 0,140010
329,000000; 0,149348
328,000000; 0,161567
327,000000; 0,178590
326,000000; 0,198854
325,000000; 0,224267
324,000000; 0,257026
323,000000; 0,298179
322,000000; 0,350860
321,000000; 0,416487
320,000000; 0,499386
319,000000; 0,601421
318,000000; 0,727278
317,000000; 0,881113
316,000000; 1,068810
315,000000; 1,296157
314,000000; 1,568305
313,000000; 1,884101
312,000000; 2,225010
311,000000; 2,574302
310,000000; 2,845681
309,000000; 3,038276
308,000000; 3,056725
307,000000; 3,034297
306,000000; 3,081171
305,000000; 3,156549
304,000000; 3,199935
303,000000; 3,226903
302,000000; 3,220239
301,000000; 3,227372
300,000000; 3,286497
299,000000; 3,194376
298,000000; 3,345847
297,000000; 3,294785
296,000000; 3,337031
295,000000; 3,337178
294,000000; 3,404239
293,000000; 3,355586
292,000000; 3,436717
291,000000; 3,311823
290,000000; 3,496510
289,000000; 3,471886
288,000000; 3,415547
287,000000; 3,613667
286,000000; 3,510183
285,000000; 3,566474
284,000000; 3,449487
283,000000; 3,461275
282,000000; 3,485632
281,000000; 3,524615
280,000000; 3,567639
279,000000; 3,567910
278,000000; 3,539214
277,000000; 3,688480
276,000000; 3,855184
275,000000; 3,554590
274,000000; 3,633913
273,000000; 3,617307
272,000000; 3,710351
271,000000; 3,802520
270,000000; 3,690985
269,000000; 3,857746
268,000000; 3,803726
267,000000; 3,619587
266,000000; 3,830857
265,000000; 3,780029
264,000000; 3,859627
263,000000; 3,957036
262,000000; 3,922578
261,000000; 4,037104
260,000000; 3,833458
259,000000; 3,759230
258,000000; 3,997116
257,000000; 4,039033
256,000000; 3,893461
255,000000; 3,998719
254,000000; 3,999388
253,000000; 3,999913
252,000000; 4,000485
251,000000; 3,787539
250,000000; 4,002284
249,000000; 4,141579
248,000000; 4,346670
247,000000; 4,046659
246,000000; 4,202539
245,000000; 4,270613
244,000000; 4,204794
243,000000; 3,937043
242,000000; 4,206988
241,000000; 4,275031
240,000000; 4,151282
239,000000; 4,210395
238,000000; 4,153582
237,000000; 4,103595
236,000000; 4,214147
235,000000; 3,914339
234,000000; 3,885697
233,000000; 3,949071
232,000000; 4,022927
231,000000; 4,024198
230,000000; 3,987826
229,000000; 3,922162
228,000000; 4,224433
227,000000; 3,791968
226,000000; 3,841488
225,000000; 4,073054
224,000000; 3,995149
223,000000; 3,996249
222,000000; 3,962854
221,000000; 4,123757
220,000000; 3,903376
219,000000; 3,575855
218,000000; 3,459263
217,000000; 3,245280
216,000000; 3,060438
215,000000; 2,872504
214,000000; 2,768861
213,000000; 2,740613
212,000000; 2,789511
211,000000; 2,892980
210,000000; 3,109443
209,000000; 3,390668
208,000000; 3,702251
207,000000; 3,779851
206,000000; 3,849157
205,000000; 3,745414
204,000000; 3,787447
203,000000; 3,680601
202,000000; 3,652620
201,000000; 3,863105
200,000000; 3,689907
199,000000; 3,661614
198,000000; 3,711823
197,000000; 3,698539
196,000000; 3,030972
195,000000; 2,536555
194,000000; 10,000000
193,000000; 3,480847
192,000000; 3,164021
191,000000; 2,626857
190,000000; 2,949965
