nm; A
700,000000; 0,294577
699,000000; 0,296088
698,000000; 0,297688
697,000000; 0,299286
696,000000; 0,300835
695,000000; 0,302494
694,000000; 0,304064
693,000000; 0,305729
692,000000; 0,307409
691,000000; 0,309149
690,000000; 0,310884
689,000000; 0,312642
688,000000; 0,314370
687,000000; 0,315984
686,000000; 0,317806
685,000000; 0,319531
684,000000; 0,321237
683,000000; 0,323120
682,000000; 0,324916
681,000000; 0,326729
680,000000; 0,328565
679,000000; 0,330313
678,000000; 0,332066
677,000000; 0,333956
676,000000; 0,335910
675,000000; 0,337766
674,000000; 0,339720
673,000000; 0,341709
672,000000; 0,343588
671,000000; 0,345498
670,000000; 0,347385
669,000000; 0,349320
668,000000; 0,351405
667,000000; 0,353256
666,000000; 0,355304
665,000000; 0,357302
664,000000; 0,359341
663,000000; 0,361519
662,000000; 0,363572
661,000000; 0,365697
660,000000; 0,367805
659,000000; 0,369911
658,000000; 0,372068
657,000000; 0,374178
656,000000; 0,376404
655,000000; 0,378482
654,000000; 0,380750
653,000000; 0,382972
652,000000; 0,385185
651,000000; 0,387466
650,000000; 0,389608
649,000000; 0,391938
648,000000; 0,394178
647,000000; 0,396562
646,000000; 0,398822
645,000000; 0,401279
644,000000; 0,403648
643,000000; 0,406081
642,000000; 0,408382
641,000000; 0,410895
640,000000; 0,413314
639,000000; 0,415825
638,000000; 0,418252
637,000000; 0,420721
636,000000; 0,423261
635,000000; 0,425916
634,000000; 0,428500
633,000000; 0,431045
632,000000; 0,433718
631,000000; 0,436414
630,000000; 0,439138
629,000000; 0,441837
628,000000; 0,444500
627,000000; 0,447271
626,000000; 0,450076
625,000000; 0,452887
624,000000; 0,455711
623,000000; 0,458648
622,000000; 0,461479
621,000000; 0,464374
620,000000; 0,467248
619,000000; 0,470302
618,000000; 0,473122
617,000000; 0,476115
616,000000; 0,479263
615,000000; 0,482305
614,000000; 0,485358
613,000000; 0,488517
612,000000; 0,491641
611,000000; 0,494899
610,000000; 0,498099
609,000000; 0,501290
608,000000; 0,504540
607,000000; 0,507908
606,000000; 0,511281
605,000000; 0,514688
604,000000; 0,518204
603,000000; 0,521772
602,000000; 0,525345
601,000000; 0,528941
600,000000; 0,532549
599,000000; 0,536275
598,000000; 0,540134
597,000000; 0,543817
596,000000; 0,547641
595,000000; 0,551457
594,000000; 0,555446
593,000000; 0,559457
592,000000; 0,563374
591,000000; 0,567457
590,000000; 0,571501
589,000000; 0,575656
588,000000; 0,579901
587,000000; 0,584085
586,000000; 0,588496
585,000000; 0,592888
584,000000; 0,597379
583,000000; 0,601806
582,000000; 0,606499
581,000000; 0,611137
580,000000; 0,615872
579,000000; 0,620668
578,000000; 0,625679
577,000000; 0,630592
576,000000; 0,635683
575,000000; 0,640903
574,000000; 0,646140
573,000000; 0,651609
572,000000; 0,656980
571,000000; 0,662625
570,000000; 0,668197
569,000000; 0,673991
568,000000; 0,679830
567,000000; 0,685662
566,000000; 0,691680
565,000000; 0,697813
564,000000; 0,704102
563,000000; 0,710358
562,000000; 0,716935
561,000000; 0,723654
560,000000; 0,730378
559,000000; 0,737019
558,000000; 0,744657
557,000000; 0,751799
556,000000; 0,758924
555,000000; 0,766354
554,000000; 0,773902
553,000000; 0,781659
552,000000; 0,789310
551,000000; 0,797125
550,000000; 0,805279
549,000000; 0,813637
548,000000; 0,822146
547,000000; 0,830782
546,000000; 0,839793
545,000000; 0,848830
544,000000; 0,858054
543,000000; 0,867505
542,000000; 0,877264
541,000000; 0,887053
540,000000; 0,897496
539,000000; 0,907547
538,000000; 0,917928
537,000000; 0,928433
536,000000; 0,939491
535,000000; 0,950226
534,000000; 0,961382
533,000000; 0,972711
532,000000; 0,984261
531,000000; 0,995958
530,000000; 1,007832
529,000000; 1,020139
528,000000; 1,032323
527,000000; 1,044797
526,000000; 1,057275
525,000000; 1,069908
524,000000; 1,082785
523,000000; 1,095505
522,000000; 1,108769
521,000000; 1,122024
520,000000; 1,135566
519,000000; 1,149337
518,000000; 1,163085
517,000000; 1,177063
516,000000; 1,191348
515,000000; 1,205391
514,000000; 1,219872
513,000000; 1,234387
512,000000; 1,249069
511,000000; 1,264010
510,000000; 1,278561
509,000000; 1,293363
508,000000; 1,307688
507,000000; 1,322351
506,000000; 1,337311
505,000000; 1,352072
504,000000; 1,366256
503,000000; 1,381300
502,000000; 1,395522
501,000000; 1,410547
500,000000; 1,424514
499,000000; 1,438441
498,000000; 1,453648
497,000000; 1,468019
496,000000; 1,482137
495,000000; 1,496070
494,000000; 1,510403
493,000000; 1,524630
492,000000; 1,537829
491,000000; 1,551166
490,000000; 1,565407
489,000000; 1,578958
488,000000; 1,592527
487,000000; 1,605450
486,000000; 1,617991
485,000000; 1,630978
484,000000; 1,642963
483,000000; 1,654986
482,000000; 1,666558
481,000000; 1,678069
480,000000; 1,689542
479,000000; 1,700865
478,000000; 1,711469
477,000000; 1,722318
476,000000; 1,734116
475,000000; 1,743105
474,000000; 1,755557
473,000000; 1,767847
472,000000; 1,778985
471,000000; 1,791707
470,000000; 1,804055
469,000000; 1,817575
468,000000; 1,831568
467,000000; 1,842981
466,000000; 1,858143
465,000000; 1,874034
464,000000; 1,887794
463,000000; 1,904929
462,000000; 1,921424
461,000000; 1,938177
460,000000; 1,956037
459,000000; 1,972714
458,000000; 1,994482
457,000000; 2,013123
456,000000; 2,033399
455,000000; 2,056781
454,000000; 2,077865
453,000000; 2,102107
452,000000; 2,124474
451,000000; 2,149859
450,000000; 2,173091
449,000000; 2,202266
448,000000; 2,229444
447,000000; 2,255239
446,000000; 2,282013
445,000000; 2,317447
444,000000; 2,345001
443,000000; 2,373383
442,000000; 2,402800
441,000000; 2,444600
440,000000; 2,470658
439,000000; 2,506580
438,000000; 2,538438
437,000000; 2,577625
436,000000; 2,605351
435,000000; 2,627692
434,000000; 2,682392
433,000000; 2,709316
432,000000; 2,744958
431,000000; 2,786380
430,000000; 2,821004
429,000000; 2,843676
428,000000; 2,873839
427,000000; 2,903077
426,000000; 2,934286
425,000000; 2,995932
424,000000; 3,004284
423,000000; 3,048592
422,000000; 3,067789
421,000000; 3,039527
420,000000; 3,072822
419,000000; 3,067890
418,000000; 3,103599
417,000000; 3,136608
416,000000; 3,148219
415,000000; 3,178556
414,000000; 3,191343
413,000000; 3,204483
412,000000; 3,232058
411,000000; 3,197807
410,000000; 3,239191
409,000000; 3,253935
408,000000; 3,269117
407,000000; 3,269179
406,000000; 3,285036
405,000000; 3,284919
404,000000; 3,293096
403,000000; 3,276955
402,000000; 3,318364
401,000000; 3,318376
400,000000; 3,327155
399,000000; 3,336130
398,000000; 3,345269
397,000000; 3,345253
396,000000; 3,327138
395,000000; 3,301368
394,000000; 3,327117
393,000000; 3,336172
392,000000; 3,336030
391,000000; 3,336151
390,000000; 3,309810
389,000000; 3,318485
388,000000; 3,301502
387,000000; 3,253943
386,000000; 3,336209
385,000000; 3,301447
384,000000; 3,814668
383,000000; 10,000000
382,000000; 10,000000
381,000000; 10,000000
380,000000; 4,241546
379,000000; 4,019424
378,000000; 10,000000
377,000000; 10,000000
376,000000; 5,019233
375,000000; 10,000000
374,000000; 5,018867
373,000000; 10,000000
372,000000; 5,018563
371,000000; 3,739930
370,000000; 3,976779
369,000000; 4,319069
368,000000; 4,415983
367,000000; 5,018005
366,000000; 10,000000
365,000000; 4,415949
364,000000; 4,318802
363,000000; 3,762445
362,000000; 3,871606
361,000000; 10,000000
360,000000; 4,063388
359,000000; 10,000000
358,000000; 4,239208
357,000000; 4,114202
356,000000; 4,540058
355,000000; 3,525989
354,000000; 4,062912
353,000000; 4,171676
352,000000; 4,414660
351,000000; 4,539386
350,000000; 3,785853
349,000000; 4,113036
348,000000; 4,112844
347,000000; 3,497290
346,000000; 4,015620
345,000000; 4,237116
344,000000; 3,901341
343,000000; 3,811219
342,000000; 4,316490
341,000000; 3,653649
340,000000; 3,901475
339,000000; 3,382097
338,000000; 3,673293
337,000000; 4,170811
336,000000; 3,785506
335,000000; 3,812048
334,000000; 3,553850
333,000000; 3,585256
332,000000; 4,113609
331,000000; 3,231490
330,000000; 3,716028
329,000000; 3,618993
328,000000; 3,975578
327,000000; 4,719489
326,000000; 4,175793
325,000000; 10,000000
324,000000; 3,980003
323,000000; 3,659726
322,000000; 10,000000
321,000000; 3,766628
320,000000; 4,244005
319,000000; 4,323528
318,000000; 4,545658
317,000000; 4,177747
316,000000; 4,178196
315,000000; 3,819334
314,000000; 4,178508
313,000000; 10,000000
312,000000; 4,325380
311,000000; 4,325581
310,000000; 10,000000
309,000000; 4,547926
308,000000; 4,724178
307,000000; 3,703304
306,000000; 4,247503
305,000000; 10,000000
304,000000; 4,071767
303,000000; 10,000000
302,000000; 10,000000
301,000000; 4,123623
300,000000; 10,000000
299,000000; 3,880756
298,000000; 4,328119
297,000000; 4,072936
296,000000; 4,249076
295,000000; 4,328404
294,000000; 4,726458
293,000000; 4,425624
292,000000; 4,550660
291,000000; 3,797378
290,000000; 3,986597
289,000000; 5,028189
288,000000; 4,125241
287,000000; 4,028640
286,000000; 4,426637
285,000000; 4,551751
284,000000; 10,000000
283,000000; 3,774205
282,000000; 4,126610
281,000000; 5,029765
280,000000; 4,427977
279,000000; 4,185210
278,000000; 10,000000
277,000000; 10,000000
276,000000; 10,000000
275,000000; 3,827591
274,000000; 10,000000
273,000000; 10,000000
272,000000; 10,000000
271,000000; 5,032969
270,000000; 10,000000
269,000000; 10,000000
268,000000; 4,733145
267,000000; 4,080318
266,000000; 10,000000
265,000000; 10,000000
264,000000; 10,000000
263,000000; 5,036218
262,000000; 10,000000
261,000000; 5,037104
260,000000; 5,037578
259,000000; 4,083741
258,000000; 10,000000
257,000000; 10,000000
256,000000; 4,562467
255,000000; 10,000000
254,000000; 10,000000
253,000000; 5,041306
252,000000; 4,564757
251,000000; 4,139722
250,000000; 10,000000
249,000000; 10,000000
248,000000; 4,744610
247,000000; 10,000000
246,000000; 5,047637
245,000000; 10,000000
244,000000; 10,000000
243,000000; 4,352016
242,000000; 4,450026
241,000000; 5,053182
240,000000; 10,000000
239,000000; 4,754463
238,000000; 4,755642
237,000000; 10,000000
236,000000; 4,457185
235,000000; 4,215369
234,000000; 4,459728
233,000000; 4,460954
232,000000; 4,286168
231,000000; 4,764561
230,000000; 4,464948
229,000000; 4,591169
228,000000; 4,224433
227,000000; 3,924593
226,000000; 4,293786
225,000000; 4,169965
224,000000; 5,074330
223,000000; 4,598309
222,000000; 4,231699
221,000000; 4,600879
220,000000; 4,477407
219,000000; 3,967062
218,000000; 4,304361
217,000000; 4,385159
216,000000; 4,044351
215,000000; 4,786318
214,000000; 4,611886
213,000000; 4,136618
212,000000; 4,314555
211,000000; 4,052984
210,000000; 4,017033
209,000000; 4,143996
208,000000; 4,498131
207,000000; 4,060677
206,000000; 4,104429
205,000000; 4,107142
204,000000; 4,264568
203,000000; 3,731753
202,000000; 4,160775
201,000000; 3,796158
200,000000; 4,644150
199,000000; 3,893563
198,000000; 4,047616
197,000000; 3,953811
196,000000; 3,788920
195,000000; 3,459954
194,000000; 4,058037
193,000000; 3,288961
192,000000; 4,238654
191,000000; 3,159678
190,000000; 4,029146
