nm; A
700,000000; 0,001115
699,000000; 0,001108
698,000000; 0,001092
697,000000; 0,001100
696,000000; 0,001060
695,000000; 0,001069
694,000000; 0,000985
693,000000; 0,000993
692,000000; 0,001033
691,000000; 0,000958
690,000000; 0,001086
689,000000; 0,001066
688,000000; 0,001034
687,000000; 0,000934
686,000000; 0,001002
685,000000; 0,001019
684,000000; 0,000991
683,000000; 0,000955
682,000000; 0,000883
681,000000; 0,000995
680,000000; 0,000975
679,000000; 0,000931
678,000000; 0,000839
677,000000; 0,000895
676,000000; 0,000944
675,000000; 0,000876
674,000000; 0,000836
673,000000; 0,000852
672,000000; 0,000836
671,000000; 0,000932
670,000000; 0,000909
669,000000; 0,000877
668,000000; 0,000885
667,000000; 0,000813
666,000000; 0,000853
665,000000; 0,000797
664,000000; 0,000817
663,000000; 0,000845
662,000000; 0,000770
661,000000; 0,000710
660,000000; 0,000774
659,000000; 0,000738
658,000000; 0,000738
657,000000; 0,000666
656,000000; 0,000694
655,000000; 0,000798
654,000000; 0,000762
653,000000; 0,000743
652,000000; 0,000710
651,000000; 0,000763
650,000000; 0,000630
649,000000; 0,000731
648,000000; 0,000659
647,000000; 0,000683
646,000000; 0,000699
645,000000; 0,000687
644,000000; 0,000671
643,000000; 0,000768
642,000000; 0,000679
641,000000; 0,000760
640,000000; 0,000740
639,000000; 0,000760
638,000000; 0,000869
637,000000; 0,000788
636,000000; 0,000813
635,000000; 0,000841
634,000000; 0,000853
633,000000; 0,000861
632,000000; 0,000841
631,000000; 0,000838
630,000000; 0,000938
629,000000; 0,000894
628,000000; 0,000826
627,000000; 0,000919
626,000000; 0,000931
625,000000; 0,000967
624,000000; 0,000992
623,000000; 0,001044
622,000000; 0,001060
621,000000; 0,001085
620,000000; 0,001113
619,000000; 0,001109
618,000000; 0,001081
617,000000; 0,001069
616,000000; 0,001126
615,000000; 0,001098
614,000000; 0,001119
613,000000; 0,001091
612,000000; 0,001119
611,000000; 0,001123
610,000000; 0,001156
609,000000; 0,001213
608,000000; 0,001165
607,000000; 0,001246
606,000000; 0,001230
605,000000; 0,001247
604,000000; 0,001191
603,000000; 0,001220
602,000000; 0,001265
601,000000; 0,001172
600,000000; 0,001197
599,000000; 0,001222
598,000000; 0,001247
597,000000; 0,001183
596,000000; 0,001232
595,000000; 0,001245
594,000000; 0,001201
593,000000; 0,001332
592,000000; 0,001251
591,000000; 0,001285
590,000000; 0,001294
589,000000; 0,001315
588,000000; 0,001398
587,000000; 0,001329
586,000000; 0,001494
585,000000; 0,001457
584,000000; 0,001499
583,000000; 0,001529
582,000000; 0,001591
581,000000; 0,001624
580,000000; 0,001600
579,000000; 0,001667
578,000000; 0,001712
577,000000; 0,001676
576,000000; 0,001733
575,000000; 0,001890
574,000000; 0,001791
573,000000; 0,001943
572,000000; 0,001873
571,000000; 0,001914
570,000000; 0,001988
569,000000; 0,001988
568,000000; 0,002016
567,000000; 0,002049
566,000000; 0,002044
565,000000; 0,002155
564,000000; 0,002122
563,000000; 0,002154
562,000000; 0,002158
561,000000; 0,002174
560,000000; 0,002141
559,000000; 0,002194
558,000000; 0,002062
557,000000; 0,002045
556,000000; 0,002041
555,000000; 0,002122
554,000000; 0,002163
553,000000; 0,002237
552,000000; 0,002183
551,000000; 0,002335
550,000000; 0,002388
549,000000; 0,002375
548,000000; 0,002486
547,000000; 0,002424
546,000000; 0,002507
545,000000; 0,002511
544,000000; 0,002495
543,000000; 0,002511
542,000000; 0,002643
541,000000; 0,002561
540,000000; 0,002689
539,000000; 0,002595
538,000000; 0,002550
537,000000; 0,002624
536,000000; 0,002698
535,000000; 0,002674
534,000000; 0,002731
533,000000; 0,002687
532,000000; 0,002769
531,000000; 0,002790
530,000000; 0,002872
529,000000; 0,002795
528,000000; 0,003025
527,000000; 0,003021
526,000000; 0,003030
525,000000; 0,003059
524,000000; 0,003096
523,000000; 0,003142
522,000000; 0,003196
521,000000; 0,003159
520,000000; 0,003147
519,000000; 0,003209
518,000000; 0,003176
517,000000; 0,003140
516,000000; 0,003301
515,000000; 0,003190
514,000000; 0,003285
513,000000; 0,003347
512,000000; 0,003344
511,000000; 0,003336
510,000000; 0,003448
509,000000; 0,003490
508,000000; 0,003564
507,000000; 0,003528
506,000000; 0,003516
505,000000; 0,003587
504,000000; 0,003518
503,000000; 0,003621
502,000000; 0,003539
501,000000; 0,003622
500,000000; 0,003586
499,000000; 0,003702
498,000000; 0,003756
497,000000; 0,003658
496,000000; 0,003717
495,000000; 0,003771
494,000000; 0,003841
493,000000; 0,003876
492,000000; 0,003806
491,000000; 0,003910
490,000000; 0,003856
489,000000; 0,003940
488,000000; 0,004078
487,000000; 0,004025
486,000000; 0,004138
485,000000; 0,004188
484,000000; 0,004185
483,000000; 0,004219
482,000000; 0,004208
481,000000; 0,004288
480,000000; 0,004297
479,000000; 0,004385
478,000000; 0,004478
477,000000; 0,004479
476,000000; 0,004571
475,000000; 0,004676
474,000000; 0,004814
473,000000; 0,004765
472,000000; 0,004850
471,000000; 0,004847
470,000000; 0,004915
469,000000; 0,004887
468,000000; 0,004925
467,000000; 0,005159
466,000000; 0,005222
465,000000; 0,005141
464,000000; 0,005246
463,000000; 0,005331
462,000000; 0,005374
461,000000; 0,005359
460,000000; 0,005536
459,000000; 0,005629
458,000000; 0,005719
457,000000; 0,005746
456,000000; 0,005745
455,000000; 0,005888
454,000000; 0,006067
453,000000; 0,005949
452,000000; 0,006074
451,000000; 0,006140
450,000000; 0,006224
449,000000; 0,006266
448,000000; 0,006441
447,000000; 0,006454
446,000000; 0,006501
445,000000; 0,006648
444,000000; 0,006815
443,000000; 0,006641
442,000000; 0,007036
441,000000; 0,007189
440,000000; 0,007091
439,000000; 0,007194
438,000000; 0,007235
437,000000; 0,007410
436,000000; 0,007562
435,000000; 0,007560
434,000000; 0,007671
433,000000; 0,007701
432,000000; 0,007791
431,000000; 0,007888
430,000000; 0,008048
429,000000; 0,008066
428,000000; 0,008198
427,000000; 0,008297
426,000000; 0,008339
425,000000; 0,008546
424,000000; 0,008551
423,000000; 0,008466
422,000000; 0,008784
421,000000; 0,008970
420,000000; 0,009067
419,000000; 0,009059
418,000000; 0,009286
417,000000; 0,009414
416,000000; 0,009502
415,000000; 0,009619
414,000000; 0,009670
413,000000; 0,009794
412,000000; 0,009939
411,000000; 0,010060
410,000000; 0,010188
409,000000; 0,010316
408,000000; 0,010355
407,000000; 0,010456
406,000000; 0,010763
405,000000; 0,010697
404,000000; 0,010798
403,000000; 0,010988
402,000000; 0,011073
401,000000; 0,011124
400,000000; 0,011248
399,000000; 0,011513
398,000000; 0,011608
397,000000; 0,011711
396,000000; 0,011853
395,000000; 0,012049
394,000000; 0,012158
393,000000; 0,012417
392,000000; 0,012331
391,000000; 0,012620
390,000000; 0,012684
389,000000; 0,012931
388,000000; 0,013068
387,000000; 0,013007
386,000000; 0,013306
385,000000; 0,013504
384,000000; 0,013736
383,000000; 0,013794
382,000000; 0,014155
381,000000; 0,013788
380,000000; 0,014440
379,000000; 0,014402
378,000000; 0,014623
377,000000; 0,014829
376,000000; 0,014795
375,000000; 0,015067
374,000000; 0,015195
373,000000; 0,015261
372,000000; 0,015581
371,000000; 0,015896
370,000000; 0,015652
369,000000; 0,015851
368,000000; 0,015959
367,000000; 0,016176
366,000000; 0,016252
365,000000; 0,016583
364,000000; 0,016571
363,000000; 0,016629
362,000000; 0,017040
361,000000; 0,017079
360,000000; 0,017357
359,000000; 0,017437
358,000000; 0,017511
357,000000; 0,017705
356,000000; 0,017836
355,000000; 0,018325
354,000000; 0,018359
353,000000; 0,018166
352,000000; 0,018439
351,000000; 0,018514
350,000000; 0,018697
349,000000; 0,018792
348,000000; 0,018871
347,000000; 0,019016
346,000000; 0,019226
345,000000; 0,018992
344,000000; 0,019417
343,000000; 0,019383
342,000000; 0,019580
341,000000; 0,019408
340,000000; 0,019586
339,000000; 0,019684
338,000000; 0,019783
337,000000; 0,019874
336,000000; 0,020030
335,000000; 0,020121
334,000000; 0,020025
333,000000; 0,020428
332,000000; 0,020354
331,000000; 0,020440
330,000000; 0,020639
329,000000; 0,020391
328,000000; 0,020555
327,000000; 0,021393
326,000000; 0,021617
325,000000; 0,021448
324,000000; 0,021861
323,000000; 0,021754
322,000000; 0,021894
321,000000; 0,022000
320,000000; 0,022087
319,000000; 0,022286
318,000000; 0,022301
317,000000; 0,022294
316,000000; 0,022461
315,000000; 0,022530
314,000000; 0,022557
313,000000; 0,022714
312,000000; 0,023002
311,000000; 0,023017
310,000000; 0,023097
309,000000; 0,023305
308,000000; 0,023370
307,000000; 0,023556
306,000000; 0,023700
305,000000; 0,023801
304,000000; 0,023943
303,000000; 0,024129
302,000000; 0,024257
301,000000; 0,024651
300,000000; 0,024780
299,000000; 0,024762
298,000000; 0,024910
297,000000; 0,025068
296,000000; 0,025091
295,000000; 0,025338
294,000000; 0,025422
293,000000; 0,025548
292,000000; 0,025724
291,000000; 0,025721
290,000000; 0,025849
289,000000; 0,026044
288,000000; 0,026100
287,000000; 0,026310
286,000000; 0,026246
285,000000; 0,026352
284,000000; 0,026750
283,000000; 0,026814
282,000000; 0,027003
281,000000; 0,026982
280,000000; 0,027094
279,000000; 0,027175
278,000000; 0,027451
277,000000; 0,027555
276,000000; 0,027853
275,000000; 0,028053
274,000000; 0,028078
273,000000; 0,028389
272,000000; 0,028589
271,000000; 0,028686
270,000000; 0,029026
269,000000; 0,029284
268,000000; 0,029510
267,000000; 0,029813
266,000000; 0,030140
265,000000; 0,030374
264,000000; 0,030546
263,000000; 0,031119
262,000000; 0,031289
261,000000; 0,031902
260,000000; 0,032273
259,000000; 0,032761
258,000000; 0,033225
257,000000; 0,033797
256,000000; 0,034477
255,000000; 0,035081
254,000000; 0,035978
253,000000; 0,036800
252,000000; 0,037621
251,000000; 0,038890
250,000000; 0,040354
249,000000; 0,042162
248,000000; 0,044261
247,000000; 0,047080
246,000000; 0,051095
245,000000; 0,056812
244,000000; 0,064731
243,000000; 0,076185
242,000000; 0,093063
241,000000; 0,118008
240,000000; 0,154644
239,000000; 0,208711
238,000000; 0,288930
237,000000; 0,406937
236,000000; 0,581574
235,000000; 0,836401
234,000000; 1,201690
233,000000; 1,688816
232,000000; 2,198032
231,000000; 2,455997
230,000000; 2,525428
229,000000; 2,563140
228,000000; 2,589524
227,000000; 2,603853
226,000000; 2,634187
225,000000; 2,669934
224,000000; 2,694119
223,000000; 2,721322
222,000000; 2,740337
221,000000; 2,764133
220,000000; 2,787211
219,000000; 2,782152
218,000000; 2,817695
217,000000; 2,841091
216,000000; 2,855295
215,000000; 2,872504
214,000000; 2,893108
213,000000; 2,903340
212,000000; 2,919520
211,000000; 2,890257
210,000000; 2,931862
209,000000; 2,952111
208,000000; 2,944855
207,000000; 2,968531
206,000000; 2,964550
205,000000; 2,945774
204,000000; 2,963538
203,000000; 2,935873
202,000000; 2,924686
201,000000; 2,928045
200,000000; 2,914445
199,000000; 2,919892
198,000000; 2,896348
197,000000; 2,891856
196,000000; 2,861830
195,000000; 2,760984
194,000000; 2,812936
193,000000; 2,668676
192,000000; 2,697700
191,000000; 2,524618
190,000000; 2,391811
