Created as New Dataset;Sample 005 By Administrator Date maandag, maart 02 2026
cm-1;%T
4000,00;99,13
3999,00;99,12
3998,00;99,11
3997,00;99,10
3996,00;99,11
3995,00;99,12
3994,00;99,14
3993,00;99,15
3992,00;99,17
3991,00;99,17
3990,00;99,16
3989,00;99,15
3988,00;99,14
3987,00;99,12
3986,00;99,11
3985,00;99,10
3984,00;99,10
3983,00;99,10
3982,00;99,09
3981,00;99,08
3980,00;99,07
3979,00;99,07
3978,00;99,06
3977,00;99,05
3976,00;99,05
3975,00;99,06
3974,00;99,07
3973,00;99,09
3972,00;99,10
3971,00;99,11
3970,00;99,11
3969,00;99,11
3968,00;99,11
3967,00;99,12
3966,00;99,11
3965,00;99,11
3964,00;99,10
3963,00;99,09
3962,00;99,08
3961,00;99,07
3960,00;99,05
3959,00;99,05
3958,00;99,06
3957,00;99,07
3956,00;99,09
3955,00;99,10
3954,00;99,10
3953,00;99,09
3952,00;99,08
3951,00;99,08
3950,00;99,10
3949,00;99,12
3948,00;99,13
3947,00;99,12
3946,00;99,10
3945,00;99,08
3944,00;99,08
3943,00;99,11
3942,00;99,15
3941,00;99,17
3940,00;99,16
3939,00;99,14
3938,00;99,12
3937,00;99,10
3936,00;99,08
3935,00;99,06
3934,00;99,04
3933,00;99,03
3932,00;99,04
3931,00;99,05
3930,00;99,08
3929,00;99,09
3928,00;99,09
3927,00;99,08
3926,00;99,06
3925,00;99,05
3924,00;99,06
3923,00;99,08
3922,00;99,08
3921,00;99,08
3920,00;99,08
3919,00;99,08
3918,00;99,09
3917,00;99,11
3916,00;99,13
3915,00;99,14
3914,00;99,14
3913,00;99,13
3912,00;99,12
3911,00;99,11
3910,00;99,11
3909,00;99,09
3908,00;99,06
3907,00;99,04
3906,00;99,02
3905,00;99,02
3904,00;99,04
3903,00;99,07
3902,00;99,07
3901,00;99,07
3900,00;99,07
3899,00;99,08
3898,00;99,08
3897,00;99,06
3896,00;99,03
3895,00;99,01
3894,00;99,00
3893,00;99,02
3892,00;99,05
3891,00;99,09
3890,00;99,11
3889,00;99,10
3888,00;99,06
3887,00;99,04
3886,00;99,04
3885,00;99,06
3884,00;99,07
3883,00;99,06
3882,00;99,06
3881,00;99,08
3880,00;99,12
3879,00;99,12
3878,00;99,09
3877,00;99,04
3876,00;99,02
3875,00;99,04
3874,00;99,07
3873,00;99,09
3872,00;99,08
3871,00;99,05
3870,00;99,04
3869,00;99,04
3868,00;99,03
3867,00;99,00
3866,00;98,99
3865,00;99,02
3864,00;99,08
3863,00;99,14
3862,00;99,15
3861,00;99,14
3860,00;99,10
3859,00;99,06
3858,00;99,03
3857,00;99,01
3856,00;98,99
3855,00;98,96
3854,00;98,94
3853,00;98,95
3852,00;98,97
3851,00;98,96
3850,00;98,97
3849,00;99,00
3848,00;99,03
3847,00;99,04
3846,00;99,04
3845,00;99,04
3844,00;99,04
3843,00;99,05
3842,00;99,05
3841,00;99,03
3840,00;99,01
3839,00;98,99
3838,00;99,00
3837,00;99,02
3836,00;99,03
3835,00;99,03
3834,00;99,02
3833,00;99,01
3832,00;99,00
3831,00;98,98
3830,00;98,97
3829,00;98,97
3828,00;98,98
3827,00;99,00
3826,00;99,03
3825,00;99,03
3824,00;99,02
3823,00;98,99
3822,00;98,97
3821,00;98,98
3820,00;98,98
3819,00;98,96
3818,00;98,92
3817,00;98,92
3816,00;98,95
3815,00;98,99
3814,00;99,01
3813,00;99,00
3812,00;99,00
3811,00;99,00
3810,00;98,98
3809,00;98,95
3808,00;98,92
3807,00;98,92
3806,00;98,92
3805,00;98,91
3804,00;98,89
3803,00;98,88
3802,00;98,89
3801,00;98,91
3800,00;98,92
3799,00;98,90
3798,00;98,89
3797,00;98,91
3796,00;98,95
3795,00;98,98
3794,00;98,98
3793,00;98,97
3792,00;98,97
3791,00;98,97
3790,00;98,96
3789,00;98,93
3788,00;98,90
3787,00;98,88
3786,00;98,88
3785,00;98,91
3784,00;98,94
3783,00;98,96
3782,00;98,96
3781,00;98,94
3780,00;98,92
3779,00;98,90
3778,00;98,88
3777,00;98,85
3776,00;98,83
3775,00;98,83
3774,00;98,82
3773,00;98,81
3772,00;98,81
3771,00;98,81
3770,00;98,84
3769,00;98,86
3768,00;98,86
3767,00;98,85
3766,00;98,84
3765,00;98,83
3764,00;98,81
3763,00;98,78
3762,00;98,74
3761,00;98,71
3760,00;98,70
3759,00;98,70
3758,00;98,71
3757,00;98,70
3756,00;98,69
3755,00;98,66
3754,00;98,63
3753,00;98,60
3752,00;98,59
3751,00;98,60
3750,00;98,61
3749,00;98,60
3748,00;98,57
3747,00;98,54
3746,00;98,54
3745,00;98,54
3744,00;98,54
3743,00;98,50
3742,00;98,45
3741,00;98,43
3740,00;98,45
3739,00;98,47
3738,00;98,46
3737,00;98,44
3736,00;98,45
3735,00;98,49
3734,00;98,53
3733,00;98,54
3732,00;98,51
3731,00;98,47
3730,00;98,42
3729,00;98,38
3728,00;98,36
3727,00;98,36
3726,00;98,37
3725,00;98,37
3724,00;98,36
3723,00;98,35
3722,00;98,33
3721,00;98,31
3720,00;98,28
3719,00;98,26
3718,00;98,23
3717,00;98,20
3716,00;98,17
3715,00;98,14
3714,00;98,10
3713,00;98,05
3712,00;98,01
3711,00;97,97
3710,00;97,94
3709,00;97,90
3708,00;97,84
3707,00;97,80
3706,00;97,77
3705,00;97,74
3704,00;97,72
3703,00;97,69
3702,00;97,64
3701,00;97,57
3700,00;97,48
3699,00;97,38
3698,00;97,30
3697,00;97,25
3696,00;97,21
3695,00;97,18
3694,00;97,13
3693,00;97,05
3692,00;96,96
3691,00;96,85
3690,00;96,75
3689,00;96,66
3688,00;96,57
3687,00;96,46
3686,00;96,35
3685,00;96,25
3684,00;96,18
3683,00;96,09
3682,00;95,99
3681,00;95,89
3680,00;95,79
3679,00;95,69
3678,00;95,58
3677,00;95,43
3676,00;95,23
3675,00;95,04
3674,00;94,90
3673,00;94,77
3672,00;94,65
3671,00;94,51
3670,00;94,34
3669,00;94,17
3668,00;94,01
3667,00;93,86
3666,00;93,73
3665,00;93,60
3664,00;93,45
3663,00;93,30
3662,00;93,14
3661,00;92,98
3660,00;92,84
3659,00;92,69
3658,00;92,51
3657,00;92,31
3656,00;92,08
3655,00;91,87
3654,00;91,70
3653,00;91,56
3652,00;91,42
3651,00;91,24
3650,00;90,99
3649,00;90,70
3648,00;90,42
3647,00;90,18
3646,00;89,99
3645,00;89,84
3644,00;89,71
3643,00;89,57
3642,00;89,42
3641,00;89,24
3640,00;89,04
3639,00;88,84
3638,00;88,64
3637,00;88,46
3636,00;88,27
3635,00;88,09
3634,00;87,90
3633,00;87,72
3632,00;87,56
3631,00;87,39
3630,00;87,16
3629,00;86,87
3628,00;86,61
3627,00;86,41
3626,00;86,25
3625,00;86,12
3624,00;86,01
3623,00;85,89
3622,00;85,76
3621,00;85,61
3620,00;85,43
3619,00;85,24
3618,00;85,06
3617,00;84,90
3616,00;84,74
3615,00;84,56
3614,00;84,37
3613,00;84,18
3612,00;84,01
3611,00;83,85
3610,00;83,69
3609,00;83,52
3608,00;83,33
3607,00;83,16
3606,00;83,01
3605,00;82,87
3604,00;82,73
3603,00;82,58
3602,00;82,41
3601,00;82,23
3600,00;82,06
3599,00;81,91
3598,00;81,78
3597,00;81,65
3596,00;81,50
3595,00;81,32
3594,00;81,13
3593,00;80,94
3592,00;80,78
3591,00;80,64
3590,00;80,49
3589,00;80,31
3588,00;80,08
3587,00;79,84
3586,00;79,65
3585,00;79,49
3584,00;79,33
3583,00;79,18
3582,00;79,03
3581,00;78,87
3580,00;78,71
3579,00;78,54
3578,00;78,38
3577,00;78,20
3576,00;78,02
3575,00;77,84
3574,00;77,67
3573,00;77,50
3572,00;77,36
3571,00;77,23
3570,00;77,11
3569,00;76,96
3568,00;76,76
3567,00;76,54
3566,00;76,32
3565,00;76,13
3564,00;75,95
3563,00;75,78
3562,00;75,62
3561,00;75,45
3560,00;75,28
3559,00;75,11
3558,00;74,95
3557,00;74,79
3556,00;74,63
3555,00;74,47
3554,00;74,30
3553,00;74,10
3552,00;73,90
3551,00;73,71
3550,00;73,54
3549,00;73,38
3548,00;73,20
3547,00;73,00
3546,00;72,77
3545,00;72,55
3544,00;72,35
3543,00;72,18
3542,00;72,03
3541,00;71,88
3540,00;71,72
3539,00;71,55
3538,00;71,38
3537,00;71,18
3536,00;70,98
3535,00;70,79
3534,00;70,62
3533,00;70,46
3532,00;70,29
3531,00;70,12
3530,00;69,95
3529,00;69,77
3528,00;69,58
3527,00;69,39
3526,00;69,19
3525,00;68,99
3524,00;68,80
3523,00;68,62
3522,00;68,45
3521,00;68,28
3520,00;68,10
3519,00;67,91
3518,00;67,72
3517,00;67,53
3516,00;67,35
3515,00;67,18
3514,00;67,02
3513,00;66,85
3512,00;66,68
3511,00;66,49
3510,00;66,29
3509,00;66,09
3508,00;65,92
3507,00;65,76
3506,00;65,61
3505,00;65,45
3504,00;65,26
3503,00;65,05
3502,00;64,84
3501,00;64,65
3500,00;64,47
3499,00;64,31
3498,00;64,13
3497,00;63,95
3496,00;63,77
3495,00;63,58
3494,00;63,41
3493,00;63,23
3492,00;63,05
3491,00;62,88
3490,00;62,70
3489,00;62,52
3488,00;62,33
3487,00;62,14
3486,00;61,96
3485,00;61,80
3484,00;61,64
3483,00;61,47
3482,00;61,29
3481,00;61,10
3480,00;60,92
3479,00;60,75
3478,00;60,59
3477,00;60,44
3476,00;60,28
3475,00;60,12
3474,00;59,95
3473,00;59,77
3472,00;59,59
3471,00;59,41
3470,00;59,23
3469,00;59,04
3468,00;58,86
3467,00;58,69
3466,00;58,54
3465,00;58,39
3464,00;58,24
3463,00;58,07
3462,00;57,89
3461,00;57,72
3460,00;57,55
3459,00;57,40
3458,00;57,24
3457,00;57,08
3456,00;56,91
3455,00;56,75
3454,00;56,59
3453,00;56,44
3452,00;56,29
3451,00;56,15
3450,00;56,01
3449,00;55,85
3448,00;55,67
3447,00;55,48
3446,00;55,31
3445,00;55,16
3444,00;55,03
3443,00;54,88
3442,00;54,73
3441,00;54,58
3440,00;54,43
3439,00;54,28
3438,00;54,14
3437,00;53,99
3436,00;53,85
3435,00;53,70
3434,00;53,56
3433,00;53,41
3432,00;53,27
3431,00;53,13
3430,00;53,00
3429,00;52,88
3428,00;52,76
3427,00;52,64
3426,00;52,52
3425,00;52,39
3424,00;52,27
3423,00;52,14
3422,00;52,01
3421,00;51,86
3420,00;51,73
3419,00;51,61
3418,00;51,51
3417,00;51,42
3416,00;51,31
3415,00;51,18
3414,00;51,05
3413,00;50,93
3412,00;50,81
3411,00;50,70
3410,00;50,59
3409,00;50,49
3408,00;50,39
3407,00;50,30
3406,00;50,20
3405,00;50,09
3404,00;49,98
3403,00;49,88
3402,00;49,78
3401,00;49,70
3400,00;49,63
3399,00;49,57
3398,00;49,50
3397,00;49,43
3396,00;49,35
3395,00;49,27
3394,00;49,18
3393,00;49,09
3392,00;49,02
3391,00;48,95
3390,00;48,90
3389,00;48,87
3388,00;48,83
3387,00;48,78
3386,00;48,72
3385,00;48,65
3384,00;48,59
3383,00;48,53
3382,00;48,50
3381,00;48,46
3380,00;48,44
3379,00;48,41
3378,00;48,38
3377,00;48,35
3376,00;48,32
3375,00;48,30
3374,00;48,28
3373,00;48,26
3372,00;48,23
3371,00;48,20
3370,00;48,17
3369,00;48,15
3368,00;48,14
3367,00;48,15
3366,00;48,15
3365,00;48,16
3364,00;48,17
3363,00;48,17
3362,00;48,17
3361,00;48,17
3360,00;48,19
3359,00;48,21
3358,00;48,24
3357,00;48,27
3356,00;48,30
3355,00;48,34
3354,00;48,37
3353,00;48,39
3352,00;48,40
3351,00;48,42
3350,00;48,45
3349,00;48,48
3348,00;48,51
3347,00;48,54
3346,00;48,57
3345,00;48,61
3344,00;48,64
3343,00;48,69
3342,00;48,73
3341,00;48,77
3340,00;48,82
3339,00;48,88
3338,00;48,94
3337,00;49,01
3336,00;49,07
3335,00;49,13
3334,00;49,19
3333,00;49,25
3332,00;49,31
3331,00;49,37
3330,00;49,43
3329,00;49,50
3328,00;49,57
3327,00;49,63
3326,00;49,69
3325,00;49,74
3324,00;49,80
3323,00;49,87
3322,00;49,94
3321,00;50,02
3320,00;50,10
3319,00;50,17
3318,00;50,24
3317,00;50,31
3316,00;50,37
3315,00;50,43
3314,00;50,50
3313,00;50,56
3312,00;50,62
3311,00;50,68
3310,00;50,74
3309,00;50,81
3308,00;50,87
3307,00;50,93
3306,00;51,00
3305,00;51,07
3304,00;51,14
3303,00;51,22
3302,00;51,29
3301,00;51,36
3300,00;51,44
3299,00;51,51
3298,00;51,59
3297,00;51,66
3296,00;51,73
3295,00;51,79
3294,00;51,84
3293,00;51,88
3292,00;51,94
3291,00;52,00
3290,00;52,08
3289,00;52,16
3288,00;52,24
3287,00;52,31
3286,00;52,39
3285,00;52,46
3284,00;52,52
3283,00;52,58
3282,00;52,64
3281,00;52,70
3280,00;52,76
3279,00;52,82
3278,00;52,87
3277,00;52,93
3276,00;52,99
3275,00;53,06
3274,00;53,12
3273,00;53,18
3272,00;53,24
3271,00;53,30
3270,00;53,35
3269,00;53,41
3268,00;53,47
3267,00;53,53
3266,00;53,60
3265,00;53,67
3264,00;53,74
3263,00;53,81
3262,00;53,89
3261,00;53,96
3260,00;54,04
3259,00;54,10
3258,00;54,17
3257,00;54,23
3256,00;54,30
3255,00;54,37
3254,00;54,46
3253,00;54,54
3252,00;54,62
3251,00;54,70
3250,00;54,78
3249,00;54,87
3248,00;54,96
3247,00;55,05
3246,00;55,14
3245,00;55,24
3244,00;55,33
3243,00;55,42
3242,00;55,51
3241,00;55,60
3240,00;55,69
3239,00;55,78
3238,00;55,88
3237,00;55,97
3236,00;56,07
3235,00;56,19
3234,00;56,30
3233,00;56,43
3232,00;56,56
3231,00;56,69
3230,00;56,81
3229,00;56,93
3228,00;57,05
3227,00;57,18
3226,00;57,31
3225,00;57,43
3224,00;57,56
3223,00;57,68
3222,00;57,81
3221,00;57,95
3220,00;58,09
3219,00;58,23
3218,00;58,38
3217,00;58,52
3216,00;58,68
3215,00;58,83
3214,00;58,97
3213,00;59,12
3212,00;59,28
3211,00;59,45
3210,00;59,63
3209,00;59,81
3208,00;59,98
3207,00;60,14
3206,00;60,31
3205,00;60,48
3204,00;60,66
3203,00;60,84
3202,00;61,02
3201,00;61,20
3200,00;61,39
3199,00;61,59
3198,00;61,79
3197,00;61,98
3196,00;62,16
3195,00;62,34
3194,00;62,52
3193,00;62,70
3192,00;62,90
3191,00;63,11
3190,00;63,32
3189,00;63,52
3188,00;63,72
3187,00;63,91
3186,00;64,11
3185,00;64,30
3184,00;64,52
3183,00;64,74
3182,00;64,98
3181,00;65,20
3180,00;65,42
3179,00;65,62
3178,00;65,81
3177,00;66,01
3176,00;66,21
3175,00;66,42
3174,00;66,64
3173,00;66,86
3172,00;67,09
3171,00;67,31
3170,00;67,53
3169,00;67,75
3168,00;67,97
3167,00;68,19
3166,00;68,40
3165,00;68,60
3164,00;68,81
3163,00;69,01
3162,00;69,23
3161,00;69,44
3160,00;69,66
3159,00;69,87
3158,00;70,09
3157,00;70,31
3156,00;70,53
3155,00;70,75
3154,00;70,97
3153,00;71,19
3152,00;71,40
3151,00;71,62
3150,00;71,84
3149,00;72,05
3148,00;72,25
3147,00;72,45
3146,00;72,65
3145,00;72,85
3144,00;73,06
3143,00;73,27
3142,00;73,47
3141,00;73,68
3140,00;73,90
3139,00;74,13
3138,00;74,36
3137,00;74,58
3136,00;74,79
3135,00;74,99
3134,00;75,19
3133,00;75,40
3132,00;75,60
3131,00;75,79
3130,00;75,96
3129,00;76,14
3128,00;76,33
3127,00;76,53
3126,00;76,75
3125,00;76,96
3124,00;77,16
3123,00;77,35
3122,00;77,52
3121,00;77,70
3120,00;77,89
3119,00;78,07
3118,00;78,25
3117,00;78,43
3116,00;78,61
3115,00;78,81
3114,00;79,00
3113,00;79,18
3112,00;79,36
3111,00;79,53
3110,00;79,70
3109,00;79,88
3108,00;80,06
3107,00;80,24
3106,00;80,42
3105,00;80,59
3104,00;80,77
3103,00;80,96
3102,00;81,13
3101,00;81,30
3100,00;81,46
3099,00;81,60
3098,00;81,75
3097,00;81,91
3096,00;82,07
3095,00;82,25
3094,00;82,42
3093,00;82,59
3092,00;82,74
3091,00;82,89
3090,00;83,04
3089,00;83,19
3088,00;83,35
3087,00;83,50
3086,00;83,64
3085,00;83,78
3084,00;83,92
3083,00;84,06
3082,00;84,20
3081,00;84,35
3080,00;84,50
3079,00;84,64
3078,00;84,79
3077,00;84,93
3076,00;85,08
3075,00;85,23
3074,00;85,37
3073,00;85,51
3072,00;85,64
3071,00;85,76
3070,00;85,89
3069,00;86,02
3068,00;86,15
3067,00;86,28
3066,00;86,41
3065,00;86,53
3064,00;86,66
3063,00;86,80
3062,00;86,93
3061,00;87,05
3060,00;87,16
3059,00;87,27
3058,00;87,38
3057,00;87,50
3056,00;87,61
3055,00;87,73
3054,00;87,84
3053,00;87,96
3052,00;88,09
3051,00;88,21
3050,00;88,32
3049,00;88,43
3048,00;88,54
3047,00;88,65
3046,00;88,76
3045,00;88,86
3044,00;88,96
3043,00;89,05
3042,00;89,15
3041,00;89,26
3040,00;89,37
3039,00;89,49
3038,00;89,61
3037,00;89,72
3036,00;89,82
3035,00;89,92
3034,00;90,01
3033,00;90,10
3032,00;90,19
3031,00;90,28
3030,00;90,38
3029,00;90,48
3028,00;90,58
3027,00;90,67
3026,00;90,76
3025,00;90,85
3024,00;90,94
3023,00;91,03
3022,00;91,11
3021,00;91,20
3020,00;91,28
3019,00;91,37
3018,00;91,46
3017,00;91,56
3016,00;91,65
3015,00;91,72
3014,00;91,79
3013,00;91,87
3012,00;91,94
3011,00;92,02
3010,00;92,10
3009,00;92,17
3008,00;92,24
3007,00;92,31
3006,00;92,37
3005,00;92,44
3004,00;92,52
3003,00;92,60
3002,00;92,68
3001,00;92,75
3000,00;92,81
2999,00;92,87
2998,00;92,94
2997,00;93,01
2996,00;93,08
2995,00;93,15
2994,00;93,22
2993,00;93,29
2992,00;93,35
2991,00;93,41
2990,00;93,46
2989,00;93,51
2988,00;93,56
2987,00;93,61
2986,00;93,67
2985,00;93,73
2984,00;93,78
2983,00;93,84
2982,00;93,90
2981,00;93,96
2980,00;94,02
2979,00;94,09
2978,00;94,16
2977,00;94,22
2976,00;94,29
2975,00;94,35
2974,00;94,43
2973,00;94,52
2972,00;94,60
2971,00;94,66
2970,00;94,70
2969,00;94,72
2968,00;94,75
2967,00;94,80
2966,00;94,86
2965,00;94,92
2964,00;94,96
2963,00;94,99
2962,00;95,02
2961,00;95,06
2960,00;95,10
2959,00;95,15
2958,00;95,20
2957,00;95,26
2956,00;95,31
2955,00;95,36
2954,00;95,41
2953,00;95,46
2952,00;95,50
2951,00;95,54
2950,00;95,58
2949,00;95,62
2948,00;95,67
2947,00;95,72
2946,00;95,77
2945,00;95,81
2944,00;95,85
2943,00;95,88
2942,00;95,91
2941,00;95,94
2940,00;95,98
2939,00;96,03
2938,00;96,06
2937,00;96,10
2936,00;96,14
2935,00;96,18
2934,00;96,23
2933,00;96,27
2932,00;96,31
2931,00;96,34
2930,00;96,37
2929,00;96,41
2928,00;96,45
2927,00;96,50
2926,00;96,54
2925,00;96,58
2924,00;96,62
2923,00;96,65
2922,00;96,67
2921,00;96,68
2920,00;96,69
2919,00;96,71
2918,00;96,73
2917,00;96,75
2916,00;96,78
2915,00;96,80
2914,00;96,83
2913,00;96,86
2912,00;96,88
2911,00;96,90
2910,00;96,93
2909,00;96,95
2908,00;96,97
2907,00;96,97
2906,00;96,98
2905,00;96,99
2904,00;97,01
2903,00;97,04
2902,00;97,07
2901,00;97,11
2900,00;97,14
2899,00;97,17
2898,00;97,19
2897,00;97,21
2896,00;97,24
2895,00;97,26
2894,00;97,28
2893,00;97,29
2892,00;97,30
2891,00;97,31
2890,00;97,32
2889,00;97,34
2888,00;97,36
2887,00;97,39
2886,00;97,42
2885,00;97,43
2884,00;97,44
2883,00;97,46
2882,00;97,48
2881,00;97,51
2880,00;97,53
2879,00;97,56
2878,00;97,58
2877,00;97,60
2876,00;97,62
2875,00;97,63
2874,00;97,65
2873,00;97,66
2872,00;97,68
2871,00;97,70
2870,00;97,72
2869,00;97,74
2868,00;97,76
2867,00;97,79
2866,00;97,81
2865,00;97,83
2864,00;97,85
2863,00;97,87
2862,00;97,89
2861,00;97,90
2860,00;97,91
2859,00;97,93
2858,00;97,95
2857,00;97,97
2856,00;97,99
2855,00;98,00
2854,00;98,01
2853,00;98,02
2852,00;98,04
2851,00;98,05
2850,00;98,08
2849,00;98,11
2848,00;98,13
2847,00;98,15
2846,00;98,17
2845,00;98,17
2844,00;98,18
2843,00;98,18
2842,00;98,19
2841,00;98,20
2840,00;98,21
2839,00;98,22
2838,00;98,23
2837,00;98,23
2836,00;98,23
2835,00;98,22
2834,00;98,22
2833,00;98,23
2832,00;98,25
2831,00;98,27
2830,00;98,29
2829,00;98,31
2828,00;98,33
2827,00;98,34
2826,00;98,35
2825,00;98,36
2824,00;98,36
2823,00;98,36
2822,00;98,37
2821,00;98,38
2820,00;98,40
2819,00;98,41
2818,00;98,43
2817,00;98,43
2816,00;98,44
2815,00;98,45
2814,00;98,46
2813,00;98,48
2812,00;98,49
2811,00;98,49
2810,00;98,50
2809,00;98,51
2808,00;98,53
2807,00;98,54
2806,00;98,56
2805,00;98,57
2804,00;98,58
2803,00;98,58
2802,00;98,57
2801,00;98,57
2800,00;98,56
2799,00;98,57
2798,00;98,58
2797,00;98,61
2796,00;98,63
2795,00;98,64
2794,00;98,65
2793,00;98,66
2792,00;98,67
2791,00;98,68
2790,00;98,69
2789,00;98,70
2788,00;98,71
2787,00;98,71
2786,00;98,71
2785,00;98,72
2784,00;98,72
2783,00;98,72
2782,00;98,72
2781,00;98,72
2780,00;98,72
2779,00;98,73
2778,00;98,74
2777,00;98,75
2776,00;98,76
2775,00;98,76
2774,00;98,77
2773,00;98,78
2772,00;98,79
2771,00;98,80
2770,00;98,80
2769,00;98,79
2768,00;98,79
2767,00;98,80
2766,00;98,81
2765,00;98,81
2764,00;98,81
2763,00;98,81
2762,00;98,82
2761,00;98,83
2760,00;98,85
2759,00;98,86
2758,00;98,87
2757,00;98,87
2756,00;98,87
2755,00;98,87
2754,00;98,88
2753,00;98,89
2752,00;98,89
2751,00;98,90
2750,00;98,91
2749,00;98,92
2748,00;98,92
2747,00;98,93
2746,00;98,94
2745,00;98,95
2744,00;98,94
2743,00;98,94
2742,00;98,93
2741,00;98,93
2740,00;98,93
2739,00;98,93
2738,00;98,94
2737,00;98,94
2736,00;98,95
2735,00;98,95
2734,00;98,96
2733,00;98,97
2732,00;98,98
2731,00;98,98
2730,00;98,99
2729,00;99,00
2728,00;99,00
2727,00;99,01
2726,00;99,01
2725,00;99,01
2724,00;99,00
2723,00;98,99
2722,00;98,98
2721,00;98,98
2720,00;98,98
2719,00;99,00
2718,00;99,02
2717,00;99,04
2716,00;99,05
2715,00;99,05
2714,00;99,06
2713,00;99,07
2712,00;99,08
2711,00;99,08
2710,00;99,08
2709,00;99,08
2708,00;99,07
2707,00;99,06
2706,00;99,05
2705,00;99,05
2704,00;99,05
2703,00;99,05
2702,00;99,06
2701,00;99,07
2700,00;99,08
2699,00;99,09
2698,00;99,11
2697,00;99,12
2696,00;99,12
2695,00;99,13
2694,00;99,12
2693,00;99,11
2692,00;99,09
2691,00;99,07
2690,00;99,07
2689,00;99,08
2688,00;99,10
2687,00;99,10
2686,00;99,10
2685,00;99,09
2684,00;99,09
2683,00;99,10
2682,00;99,11
2681,00;99,14
2680,00;99,16
2679,00;99,17
2678,00;99,17
2677,00;99,16
2676,00;99,14
2675,00;99,13
2674,00;99,13
2673,00;99,13
2672,00;99,13
2671,00;99,14
2670,00;99,14
2669,00;99,14
2668,00;99,14
2667,00;99,14
2666,00;99,15
2665,00;99,15
2664,00;99,15
2663,00;99,15
2662,00;99,15
2661,00;99,15
2660,00;99,15
2659,00;99,15
2658,00;99,16
2657,00;99,16
2656,00;99,17
2655,00;99,18
2654,00;99,19
2653,00;99,18
2652,00;99,17
2651,00;99,17
2650,00;99,17
2649,00;99,17
2648,00;99,18
2647,00;99,19
2646,00;99,20
2645,00;99,20
2644,00;99,19
2643,00;99,18
2642,00;99,17
2641,00;99,17
2640,00;99,17
2639,00;99,17
2638,00;99,17
2637,00;99,17
2636,00;99,17
2635,00;99,17
2634,00;99,17
2633,00;99,17
2632,00;99,18
2631,00;99,19
2630,00;99,19
2629,00;99,20
2628,00;99,20
2627,00;99,20
2626,00;99,19
2625,00;99,19
2624,00;99,19
2623,00;99,19
2622,00;99,19
2621,00;99,19
2620,00;99,18
2619,00;99,18
2618,00;99,18
2617,00;99,19
2616,00;99,18
2615,00;99,18
2614,00;99,17
2613,00;99,16
2612,00;99,16
2611,00;99,15
2610,00;99,16
2609,00;99,16
2608,00;99,16
2607,00;99,17
2606,00;99,18
2605,00;99,18
2604,00;99,18
2603,00;99,19
2602,00;99,19
2601,00;99,19
2600,00;99,18
2599,00;99,17
2598,00;99,17
2597,00;99,17
2596,00;99,18
2595,00;99,19
2594,00;99,20
2593,00;99,21
2592,00;99,21
2591,00;99,21
2590,00;99,20
2589,00;99,20
2588,00;99,21
2587,00;99,21
2586,00;99,22
2585,00;99,22
2584,00;99,21
2583,00;99,19
2582,00;99,18
2581,00;99,16
2580,00;99,15
2579,00;99,15
2578,00;99,17
2577,00;99,18
2576,00;99,19
2575,00;99,19
2574,00;99,19
2573,00;99,19
2572,00;99,19
2571,00;99,18
2570,00;99,17
2569,00;99,16
2568,00;99,16
2567,00;99,17
2566,00;99,18
2565,00;99,20
2564,00;99,20
2563,00;99,20
2562,00;99,19
2561,00;99,18
2560,00;99,17
2559,00;99,17
2558,00;99,17
2557,00;99,17
2556,00;99,17
2555,00;99,16
2554,00;99,16
2553,00;99,16
2552,00;99,17
2551,00;99,17
2550,00;99,18
2549,00;99,17
2548,00;99,16
2547,00;99,15
2546,00;99,15
2545,00;99,14
2544,00;99,14
2543,00;99,15
2542,00;99,15
2541,00;99,14
2540,00;99,14
2539,00;99,15
2538,00;99,17
2537,00;99,18
2536,00;99,17
2535,00;99,15
2534,00;99,13
2533,00;99,12
2532,00;99,11
2531,00;99,11
2530,00;99,13
2529,00;99,14
2528,00;99,15
2527,00;99,15
2526,00;99,14
2525,00;99,13
2524,00;99,13
2523,00;99,14
2522,00;99,14
2521,00;99,14
2520,00;99,12
2519,00;99,10
2518,00;99,08
2517,00;99,07
2516,00;99,08
2515,00;99,10
2514,00;99,11
2513,00;99,11
2512,00;99,09
2511,00;99,08
2510,00;99,07
2509,00;99,07
2508,00;99,07
2507,00;99,07
2506,00;99,07
2505,00;99,06
2504,00;99,06
2503,00;99,05
2502,00;99,06
2501,00;99,05
2500,00;99,05
2499,00;99,04
2498,00;99,04
2497,00;99,04
2496,00;99,04
2495,00;99,04
2494,00;99,05
2493,00;99,06
2492,00;99,05
2491,00;99,03
2490,00;99,01
2489,00;99,02
2488,00;99,04
2487,00;99,07
2486,00;99,08
2485,00;99,07
2484,00;99,04
2483,00;99,01
2482,00;98,99
2481,00;98,98
2480,00;98,98
2479,00;98,98
2478,00;98,98
2477,00;98,99
2476,00;99,00
2475,00;99,00
2474,00;98,99
2473,00;98,98
2472,00;98,97
2471,00;98,97
2470,00;98,98
2469,00;98,98
2468,00;98,98
2467,00;98,98
2466,00;98,98
2465,00;98,98
2464,00;98,97
2463,00;98,96
2462,00;98,94
2461,00;98,94
2460,00;98,93
2459,00;98,93
2458,00;98,92
2457,00;98,92
2456,00;98,91
2455,00;98,91
2454,00;98,91
2453,00;98,91
2452,00;98,92
2451,00;98,93
2450,00;98,94
2449,00;98,95
2448,00;98,95
2447,00;98,95
2446,00;98,95
2445,00;98,95
2444,00;98,94
2443,00;98,93
2442,00;98,92
2441,00;98,91
2440,00;98,89
2439,00;98,87
2438,00;98,86
2437,00;98,84
2436,00;98,83
2435,00;98,83
2434,00;98,84
2433,00;98,84
2432,00;98,84
2431,00;98,84
2430,00;98,85
2429,00;98,85
2428,00;98,84
2427,00;98,84
2426,00;98,83
2425,00;98,82
2424,00;98,79
2423,00;98,77
2422,00;98,76
2421,00;98,76
2420,00;98,77
2419,00;98,78
2418,00;98,79
2417,00;98,78
2416,00;98,77
2415,00;98,76
2414,00;98,76
2413,00;98,76
2412,00;98,74
2411,00;98,72
2410,00;98,69
2409,00;98,69
2408,00;98,69
2407,00;98,69
2406,00;98,69
2405,00;98,68
2404,00;98,67
2403,00;98,66
2402,00;98,66
2401,00;98,65
2400,00;98,65
2399,00;98,65
2398,00;98,67
2397,00;98,68
2396,00;98,68
2395,00;98,67
2394,00;98,66
2393,00;98,67
2392,00;98,67
2391,00;98,67
2390,00;98,66
2389,00;98,64
2388,00;98,63
2387,00;98,62
2386,00;98,62
2385,00;98,63
2384,00;98,64
2383,00;98,65
2382,00;98,64
2381,00;98,62
2380,00;98,59
2379,00;98,56
2378,00;98,52
2377,00;98,47
2376,00;98,44
2375,00;98,43
2374,00;98,45
2373,00;98,49
2372,00;98,50
2371,00;98,50
2370,00;98,49
2369,00;98,49
2368,00;98,48
2367,00;98,46
2366,00;98,43
2365,00;98,41
2364,00;98,40
2363,00;98,41
2362,00;98,47
2361,00;98,53
2360,00;98,57
2359,00;98,58
2358,00;98,56
2357,00;98,52
2356,00;98,45
2355,00;98,37
2354,00;98,28
2353,00;98,21
2352,00;98,18
2351,00;98,20
2350,00;98,25
2349,00;98,29
2348,00;98,30
2347,00;98,28
2346,00;98,25
2345,00;98,25
2344,00;98,25
2343,00;98,26
2342,00;98,27
2341,00;98,27
2340,00;98,23
2339,00;98,19
2338,00;98,17
2337,00;98,15
2336,00;98,15
2335,00;98,14
2334,00;98,14
2333,00;98,13
2332,00;98,10
2331,00;98,08
2330,00;98,08
2329,00;98,10
2328,00;98,11
2327,00;98,13
2326,00;98,15
2325,00;98,13
2324,00;98,09
2323,00;98,05
2322,00;98,04
2321,00;98,04
2320,00;98,06
2319,00;98,09
2318,00;98,10
2317,00;98,10
2316,00;98,08
2315,00;98,06
2314,00;98,05
2313,00;98,04
2312,00;98,03
2311,00;98,03
2310,00;98,04
2309,00;98,05
2308,00;98,05
2307,00;98,04
2306,00;98,02
2305,00;98,01
2304,00;97,99
2303,00;97,98
2302,00;97,98
2301,00;97,98
2300,00;97,97
2299,00;97,96
2298,00;97,95
2297,00;97,95
2296,00;97,94
2295,00;97,92
2294,00;97,90
2293,00;97,88
2292,00;97,87
2291,00;97,86
2290,00;97,86
2289,00;97,86
2288,00;97,86
2287,00;97,86
2286,00;97,86
2285,00;97,86
2284,00;97,84
2283,00;97,81
2282,00;97,78
2281,00;97,76
2280,00;97,74
2279,00;97,73
2278,00;97,74
2277,00;97,75
2276,00;97,77
2275,00;97,80
2274,00;97,82
2273,00;97,83
2272,00;97,82
2271,00;97,79
2270,00;97,75
2269,00;97,69
2268,00;97,64
2267,00;97,61
2266,00;97,61
2265,00;97,61
2264,00;97,60
2263,00;97,58
2262,00;97,57
2261,00;97,56
2260,00;97,55
2259,00;97,54
2258,00;97,52
2257,00;97,51
2256,00;97,50
2255,00;97,51
2254,00;97,53
2253,00;97,55
2252,00;97,55
2251,00;97,54
2250,00;97,51
2249,00;97,48
2248,00;97,46
2247,00;97,45
2246,00;97,45
2245,00;97,43
2244,00;97,42
2243,00;97,42
2242,00;97,44
2241,00;97,45
2240,00;97,43
2239,00;97,41
2238,00;97,43
2237,00;97,44
2236,00;97,43
2235,00;97,39
2234,00;97,34
2233,00;97,29
2232,00;97,26
2231,00;97,25
2230,00;97,26
2229,00;97,27
2228,00;97,26
2227,00;97,22
2226,00;97,18
2225,00;97,16
2224,00;97,17
2223,00;97,20
2222,00;97,21
2221,00;97,20
2220,00;97,16
2219,00;97,13
2218,00;97,11
2217,00;97,09
2216,00;97,08
2215,00;97,09
2214,00;97,09
2213,00;97,08
2212,00;97,05
2211,00;97,01
2210,00;96,97
2209,00;96,95
2208,00;96,92
2207,00;96,90
2206,00;96,90
2205,00;96,92
2204,00;96,93
2203,00;96,94
2202,00;96,95
2201,00;96,95
2200,00;96,94
2199,00;96,94
2198,00;96,95
2197,00;96,97
2196,00;96,96
2195,00;96,92
2194,00;96,86
2193,00;96,80
2192,00;96,74
2191,00;96,72
2190,00;96,74
2189,00;96,78
2188,00;96,80
2187,00;96,79
2186,00;96,74
2185,00;96,68
2184,00;96,65
2183,00;96,66
2182,00;96,70
2181,00;96,72
2180,00;96,71
2179,00;96,67
2178,00;96,64
2177,00;96,64
2176,00;96,66
2175,00;96,68
2174,00;96,68
2173,00;96,64
2172,00;96,59
2171,00;96,55
2170,00;96,52
2169,00;96,49
2168,00;96,47
2167,00;96,46
2166,00;96,50
2165,00;96,55
2164,00;96,60
2163,00;96,62
2162,00;96,61
2161,00;96,56
2160,00;96,50
2159,00;96,48
2158,00;96,50
2157,00;96,51
2156,00;96,49
2155,00;96,43
2154,00;96,37
2153,00;96,32
2152,00;96,30
2151,00;96,31
2150,00;96,36
2149,00;96,41
2148,00;96,43
2147,00;96,41
2146,00;96,36
2145,00;96,29
2144,00;96,24
2143,00;96,22
2142,00;96,22
2141,00;96,21
2140,00;96,19
2139,00;96,17
2138,00;96,17
2137,00;96,17
2136,00;96,16
2135,00;96,16
2134,00;96,16
2133,00;96,15
2132,00;96,14
2131,00;96,13
2130,00;96,11
2129,00;96,07
2128,00;96,03
2127,00;96,00
2126,00;96,00
2125,00;96,02
2124,00;96,04
2123,00;96,05
2122,00;96,06
2121,00;96,06
2120,00;96,04
2119,00;96,01
2118,00;95,99
2117,00;95,97
2116,00;95,95
2115,00;95,93
2114,00;95,92
2113,00;95,91
2112,00;95,90
2111,00;95,90
2110,00;95,91
2109,00;95,92
2108,00;95,93
2107,00;95,93
2106,00;95,94
2105,00;95,95
2104,00;95,95
2103,00;95,95
2102,00;95,95
2101,00;95,95
2100,00;95,92
2099,00;95,88
2098,00;95,86
2097,00;95,85
2096,00;95,86
2095,00;95,86
2094,00;95,86
2093,00;95,86
2092,00;95,85
2091,00;95,84
2090,00;95,84
2089,00;95,85
2088,00;95,85
2087,00;95,87
2086,00;95,90
2085,00;95,93
2084,00;95,94
2083,00;95,93
2082,00;95,93
2081,00;95,92
2080,00;95,90
2079,00;95,88
2078,00;95,87
2077,00;95,86
2076,00;95,85
2075,00;95,86
2074,00;95,89
2073,00;95,93
2072,00;95,95
2071,00;95,95
2070,00;95,94
2069,00;95,93
2068,00;95,91
2067,00;95,92
2066,00;95,96
2065,00;96,00
2064,00;96,02
2063,00;96,01
2062,00;95,99
2061,00;95,98
2060,00;96,00
2059,00;96,03
2058,00;96,06
2057,00;96,07
2056,00;96,06
2055,00;96,05
2054,00;96,05
2053,00;96,06
2052,00;96,07
2051,00;96,09
2050,00;96,12
2049,00;96,16
2048,00;96,19
2047,00;96,21
2046,00;96,22
2045,00;96,19
2044,00;96,15
2043,00;96,13
2042,00;96,17
2041,00;96,25
2040,00;96,31
2039,00;96,35
2038,00;96,38
2037,00;96,39
2036,00;96,39
2035,00;96,39
2034,00;96,40
2033,00;96,39
2032,00;96,37
2031,00;96,38
2030,00;96,43
2029,00;96,49
2028,00;96,51
2027,00;96,51
2026,00;96,53
2025,00;96,53
2024,00;96,49
2023,00;96,43
2022,00;96,41
2021,00;96,41
2020,00;96,43
2019,00;96,45
2018,00;96,49
2017,00;96,52
2016,00;96,53
2015,00;96,52
2014,00;96,52
2013,00;96,51
2012,00;96,52
2011,00;96,55
2010,00;96,63
2009,00;96,72
2008,00;96,76
2007,00;96,77
2006,00;96,76
2005,00;96,74
2004,00;96,73
2003,00;96,74
2002,00;96,76
2001,00;96,78
2000,00;96,78
1999,00;96,77
1998,00;96,77
1997,00;96,77
1996,00;96,75
1995,00;96,72
1994,00;96,71
1993,00;96,70
1992,00;96,72
1991,00;96,77
1990,00;96,85
1989,00;96,92
1988,00;96,96
1987,00;96,99
1986,00;97,01
1985,00;97,00
1984,00;96,96
1983,00;96,93
1982,00;96,97
1981,00;97,06
1980,00;97,16
1979,00;97,23
1978,00;97,25
1977,00;97,20
1976,00;97,11
1975,00;97,04
1974,00;97,05
1973,00;97,10
1972,00;97,14
1971,00;97,15
1970,00;97,16
1969,00;97,18
1968,00;97,19
1967,00;97,19
1966,00;97,19
1965,00;97,21
1964,00;97,23
1963,00;97,28
1962,00;97,34
1961,00;97,37
1960,00;97,34
1959,00;97,29
1958,00;97,24
1957,00;97,24
1956,00;97,28
1955,00;97,34
1954,00;97,39
1953,00;97,42
1952,00;97,42
1951,00;97,41
1950,00;97,40
1949,00;97,38
1948,00;97,36
1947,00;97,37
1946,00;97,41
1945,00;97,43
1944,00;97,42
1943,00;97,41
1942,00;97,41
1941,00;97,44
1940,00;97,45
1939,00;97,45
1938,00;97,44
1937,00;97,42
1936,00;97,39
1935,00;97,40
1934,00;97,44
1933,00;97,49
1932,00;97,50
1931,00;97,50
1930,00;97,49
1929,00;97,49
1928,00;97,51
1927,00;97,55
1926,00;97,59
1925,00;97,62
1924,00;97,60
1923,00;97,57
1922,00;97,54
1921,00;97,52
1920,00;97,49
1919,00;97,49
1918,00;97,53
1917,00;97,58
1916,00;97,60
1915,00;97,61
1914,00;97,63
1913,00;97,63
1912,00;97,61
1911,00;97,58
1910,00;97,57
1909,00;97,57
1908,00;97,59
1907,00;97,61
1906,00;97,63
1905,00;97,65
1904,00;97,64
1903,00;97,64
1902,00;97,64
1901,00;97,66
1900,00;97,68
1899,00;97,70
1898,00;97,72
1897,00;97,73
1896,00;97,73
1895,00;97,71
1894,00;97,71
1893,00;97,71
1892,00;97,70
1891,00;97,68
1890,00;97,68
1889,00;97,69
1888,00;97,70
1887,00;97,72
1886,00;97,73
1885,00;97,72
1884,00;97,70
1883,00;97,67
1882,00;97,67
1881,00;97,69
1880,00;97,70
1879,00;97,71
1878,00;97,71
1877,00;97,71
1876,00;97,70
1875,00;97,70
1874,00;97,71
1873,00;97,73
1872,00;97,74
1871,00;97,74
1870,00;97,74
1869,00;97,74
1868,00;97,73
1867,00;97,74
1866,00;97,76
1865,00;97,77
1864,00;97,75
1863,00;97,73
1862,00;97,73
1861,00;97,75
1860,00;97,76
1859,00;97,77
1858,00;97,77
1857,00;97,77
1856,00;97,74
1855,00;97,71
1854,00;97,70
1853,00;97,69
1852,00;97,69
1851,00;97,68
1850,00;97,68
1849,00;97,68
1848,00;97,67
1847,00;97,68
1846,00;97,69
1845,00;97,70
1844,00;97,69
1843,00;97,69
1842,00;97,70
1841,00;97,70
1840,00;97,70
1839,00;97,69
1838,00;97,68
1837,00;97,66
1836,00;97,64
1835,00;97,62
1834,00;97,62
1833,00;97,61
1832,00;97,61
1831,00;97,61
1830,00;97,64
1829,00;97,67
1828,00;97,67
1827,00;97,65
1826,00;97,63
1825,00;97,62
1824,00;97,60
1823,00;97,59
1822,00;97,59
1821,00;97,60
1820,00;97,58
1819,00;97,56
1818,00;97,54
1817,00;97,53
1816,00;97,52
1815,00;97,52
1814,00;97,52
1813,00;97,51
1812,00;97,50
1811,00;97,48
1810,00;97,48
1809,00;97,48
1808,00;97,47
1807,00;97,46
1806,00;97,46
1805,00;97,45
1804,00;97,42
1803,00;97,40
1802,00;97,39
1801,00;97,41
1800,00;97,42
1799,00;97,41
1798,00;97,40
1797,00;97,37
1796,00;97,34
1795,00;97,32
1794,00;97,32
1793,00;97,32
1792,00;97,33
1791,00;97,33
1790,00;97,33
1789,00;97,31
1788,00;97,28
1787,00;97,26
1786,00;97,25
1785,00;97,24
1784,00;97,22
1783,00;97,19
1782,00;97,18
1781,00;97,17
1780,00;97,15
1779,00;97,13
1778,00;97,12
1777,00;97,11
1776,00;97,09
1775,00;97,08
1774,00;97,09
1773,00;97,12
1772,00;97,15
1771,00;97,16
1770,00;97,15
1769,00;97,13
1768,00;97,10
1767,00;97,08
1766,00;97,09
1765,00;97,09
1764,00;97,07
1763,00;97,06
1762,00;97,07
1761,00;97,07
1760,00;97,06
1759,00;97,04
1758,00;97,03
1757,00;97,03
1756,00;97,02
1755,00;97,00
1754,00;96,99
1753,00;96,97
1752,00;96,94
1751,00;96,91
1750,00;96,92
1749,00;96,93
1748,00;96,91
1747,00;96,88
1746,00;96,84
1745,00;96,81
1744,00;96,76
1743,00;96,72
1742,00;96,71
1741,00;96,69
1740,00;96,64
1739,00;96,56
1738,00;96,50
1737,00;96,43
1736,00;96,32
1735,00;96,15
1734,00;95,95
1733,00;95,78
1732,00;95,64
1731,00;95,54
1730,00;95,45
1729,00;95,36
1728,00;95,23
1727,00;95,11
1726,00;94,99
1725,00;94,86
1724,00;94,69
1723,00;94,52
1722,00;94,39
1721,00;94,28
1720,00;94,16
1719,00;93,99
1718,00;93,78
1717,00;93,52
1716,00;93,24
1715,00;93,01
1714,00;92,83
1713,00;92,64
1712,00;92,43
1711,00;92,21
1710,00;92,01
1709,00;91,82
1708,00;91,62
1707,00;91,39
1706,00;91,14
1705,00;90,87
1704,00;90,62
1703,00;90,43
1702,00;90,25
1701,00;89,98
1700,00;89,55
1699,00;89,15
1698,00;88,91
1697,00;88,67
1696,00;88,28
1695,00;87,85
1694,00;87,54
1693,00;87,30
1692,00;87,06
1691,00;86,77
1690,00;86,44
1689,00;86,10
1688,00;85,79
1687,00;85,52
1686,00;85,26
1685,00;84,85
1684,00;84,20
1683,00;83,65
1682,00;83,33
1681,00;83,04
1680,00;82,69
1679,00;82,34
1678,00;82,04
1677,00;81,76
1676,00;81,35
1675,00;80,82
1674,00;80,36
1673,00;80,02
1672,00;79,72
1671,00;79,34
1670,00;78,84
1669,00;78,27
1668,00;77,74
1667,00;77,34
1666,00;77,06
1665,00;76,79
1664,00;76,41
1663,00;75,90
1662,00;75,37
1661,00;74,93
1660,00;74,55
1659,00;74,21
1658,00;73,92
1657,00;73,69
1656,00;73,48
1655,00;73,23
1654,00;72,73
1653,00;71,87
1652,00;71,18
1651,00;70,92
1650,00;70,88
1649,00;70,84
1648,00;70,60
1647,00;70,11
1646,00;69,63
1645,00;69,33
1644,00;69,13
1643,00;68,97
1642,00;68,85
1641,00;68,74
1640,00;68,65
1639,00;68,57
1638,00;68,53
1637,00;68,48
1636,00;68,34
1635,00;68,17
1634,00;68,13
1633,00;68,20
1632,00;68,29
1631,00;68,40
1630,00;68,55
1629,00;68,73
1628,00;68,91
1627,00;69,11
1626,00;69,34
1625,00;69,62
1624,00;69,93
1623,00;70,27
1622,00;70,64
1621,00;71,02
1620,00;71,36
1619,00;71,71
1618,00;72,11
1617,00;72,64
1616,00;73,22
1615,00;73,71
1614,00;74,16
1613,00;74,60
1612,00;75,05
1611,00;75,52
1610,00;76,00
1609,00;76,52
1608,00;77,03
1607,00;77,52
1606,00;77,98
1605,00;78,44
1604,00;78,90
1603,00;79,36
1602,00;79,81
1601,00;80,27
1600,00;80,69
1599,00;81,09
1598,00;81,45
1597,00;81,82
1596,00;82,19
1595,00;82,55
1594,00;82,90
1593,00;83,24
1592,00;83,57
1591,00;83,88
1590,00;84,18
1589,00;84,47
1588,00;84,75
1587,00;85,02
1586,00;85,27
1585,00;85,51
1584,00;85,75
1583,00;85,97
1582,00;86,18
1581,00;86,38
1580,00;86,58
1579,00;86,76
1578,00;86,92
1577,00;87,10
1576,00;87,33
1575,00;87,55
1574,00;87,71
1573,00;87,86
1572,00;88,01
1571,00;88,17
1570,00;88,33
1569,00;88,48
1568,00;88,60
1567,00;88,69
1566,00;88,78
1565,00;88,90
1564,00;89,02
1563,00;89,11
1562,00;89,18
1561,00;89,28
1560,00;89,45
1559,00;89,67
1558,00;89,81
1557,00;89,82
1556,00;89,84
1555,00;89,88
1554,00;89,93
1553,00;89,99
1552,00;90,05
1551,00;90,11
1550,00;90,17
1549,00;90,24
1548,00;90,31
1547,00;90,37
1546,00;90,41
1545,00;90,45
1544,00;90,50
1543,00;90,57
1542,00;90,62
1541,00;90,67
1540,00;90,76
1539,00;90,84
1538,00;90,86
1537,00;90,87
1536,00;90,92
1535,00;90,98
1534,00;91,05
1533,00;91,11
1532,00;91,16
1531,00;91,18
1530,00;91,20
1529,00;91,24
1528,00;91,29
1527,00;91,34
1526,00;91,37
1525,00;91,39
1524,00;91,41
1523,00;91,43
1522,00;91,44
1521,00;91,48
1520,00;91,54
1519,00;91,59
1518,00;91,62
1517,00;91,63
1516,00;91,64
1515,00;91,66
1514,00;91,67
1513,00;91,67
1512,00;91,68
1511,00;91,69
1510,00;91,70
1509,00;91,71
1508,00;91,71
1507,00;91,77
1506,00;91,85
1505,00;91,87
1504,00;91,86
1503,00;91,87
1502,00;91,88
1501,00;91,91
1500,00;91,95
1499,00;92,01
1498,00;92,04
1497,00;92,06
1496,00;92,07
1495,00;92,08
1494,00;92,07
1493,00;92,07
1492,00;92,07
1491,00;92,07
1490,00;92,07
1489,00;92,10
1488,00;92,13
1487,00;92,15
1486,00;92,15
1485,00;92,15
1484,00;92,16
1483,00;92,17
1482,00;92,18
1481,00;92,19
1480,00;92,21
1479,00;92,22
1478,00;92,23
1477,00;92,24
1476,00;92,25
1475,00;92,28
1474,00;92,28
1473,00;92,29
1472,00;92,32
1471,00;92,34
1470,00;92,34
1469,00;92,33
1468,00;92,34
1467,00;92,36
1466,00;92,38
1465,00;92,42
1464,00;92,46
1463,00;92,47
1462,00;92,46
1461,00;92,45
1460,00;92,45
1459,00;92,46
1458,00;92,45
1457,00;92,44
1456,00;92,46
1455,00;92,47
1454,00;92,48
1453,00;92,48
1452,00;92,48
1451,00;92,49
1450,00;92,51
1449,00;92,52
1448,00;92,54
1447,00;92,55
1446,00;92,55
1445,00;92,54
1444,00;92,54
1443,00;92,55
1442,00;92,55
1441,00;92,55
1440,00;92,56
1439,00;92,57
1438,00;92,58
1437,00;92,58
1436,00;92,57
1435,00;92,55
1434,00;92,53
1433,00;92,53
1432,00;92,55
1431,00;92,56
1430,00;92,57
1429,00;92,57
1428,00;92,57
1427,00;92,57
1426,00;92,58
1425,00;92,58
1424,00;92,57
1423,00;92,56
1422,00;92,55
1421,00;92,54
1420,00;92,53
1419,00;92,52
1418,00;92,51
1417,00;92,50
1416,00;92,50
1415,00;92,50
1414,00;92,51
1413,00;92,51
1412,00;92,50
1411,00;92,49
1410,00;92,48
1409,00;92,48
1408,00;92,48
1407,00;92,48
1406,00;92,47
1405,00;92,46
1404,00;92,46
1403,00;92,47
1402,00;92,48
1401,00;92,49
1400,00;92,50
1399,00;92,50
1398,00;92,49
1397,00;92,48
1396,00;92,48
1395,00;92,49
1394,00;92,51
1393,00;92,52
1392,00;92,54
1391,00;92,56
1390,00;92,57
1389,00;92,58
1388,00;92,59
1387,00;92,62
1386,00;92,66
1385,00;92,71
1384,00;92,76
1383,00;92,80
1382,00;92,82
1381,00;92,83
1380,00;92,84
1379,00;92,86
1378,00;92,88
1377,00;92,90
1376,00;92,92
1375,00;92,94
1374,00;92,96
1373,00;92,97
1372,00;92,98
1371,00;92,98
1370,00;92,97
1369,00;92,97
1368,00;92,99
1367,00;93,02
1366,00;93,03
1365,00;93,01
1364,00;92,95
1363,00;92,88
1362,00;92,84
1361,00;92,84
1360,00;92,83
1359,00;92,82
1358,00;92,79
1357,00;92,77
1356,00;92,77
1355,00;92,77
1354,00;92,78
1353,00;92,78
1352,00;92,76
1351,00;92,73
1350,00;92,69
1349,00;92,66
1348,00;92,63
1347,00;92,61
1346,00;92,58
1345,00;92,54
1344,00;92,51
1343,00;92,47
1342,00;92,42
1341,00;92,36
1340,00;92,30
1339,00;92,25
1338,00;92,23
1337,00;92,24
1336,00;92,25
1335,00;92,25
1334,00;92,25
1333,00;92,24
1332,00;92,22
1331,00;92,20
1330,00;92,18
1329,00;92,17
1328,00;92,17
1327,00;92,16
1326,00;92,16
1325,00;92,15
1324,00;92,14
1323,00;92,13
1322,00;92,11
1321,00;92,09
1320,00;92,07
1319,00;92,06
1318,00;92,06
1317,00;92,05
1316,00;92,04
1315,00;92,03
1314,00;92,02
1313,00;92,01
1312,00;92,02
1311,00;92,02
1310,00;92,02
1309,00;92,01
1308,00;92,00
1307,00;91,99
1306,00;92,00
1305,00;92,00
1304,00;92,00
1303,00;92,00
1302,00;91,98
1301,00;91,97
1300,00;91,95
1299,00;91,94
1298,00;91,94
1297,00;91,94
1296,00;91,95
1295,00;91,95
1294,00;91,93
1293,00;91,92
1292,00;91,91
1291,00;91,90
1290,00;91,90
1289,00;91,90
1288,00;91,91
1287,00;91,91
1286,00;91,91
1285,00;91,91
1284,00;91,90
1283,00;91,89
1282,00;91,88
1281,00;91,87
1280,00;91,86
1279,00;91,85
1278,00;91,84
1277,00;91,84
1276,00;91,84
1275,00;91,85
1274,00;91,85
1273,00;91,85
1272,00;91,85
1271,00;91,85
1270,00;91,85
1269,00;91,84
1268,00;91,83
1267,00;91,82
1266,00;91,80
1265,00;91,79
1264,00;91,79
1263,00;91,80
1262,00;91,81
1261,00;91,81
1260,00;91,80
1259,00;91,79
1258,00;91,78
1257,00;91,78
1256,00;91,77
1255,00;91,76
1254,00;91,75
1253,00;91,75
1252,00;91,76
1251,00;91,77
1250,00;91,78
1249,00;91,77
1248,00;91,77
1247,00;91,77
1246,00;91,79
1245,00;91,81
1244,00;91,82
1243,00;91,84
1242,00;91,85
1241,00;91,88
1240,00;91,91
1239,00;91,95
1238,00;91,99
1237,00;92,04
1236,00;92,10
1235,00;92,16
1234,00;92,22
1233,00;92,27
1232,00;92,30
1231,00;92,32
1230,00;92,33
1229,00;92,34
1228,00;92,34
1227,00;92,32
1226,00;92,29
1225,00;92,25
1224,00;92,21
1223,00;92,17
1222,00;92,16
1221,00;92,19
1220,00;92,28
1219,00;92,39
1218,00;92,47
1217,00;92,50
1216,00;92,46
1215,00;92,40
1214,00;92,33
1213,00;92,27
1212,00;92,23
1211,00;92,21
1210,00;92,20
1209,00;92,20
1208,00;92,20
1207,00;92,21
1206,00;92,22
1205,00;92,21
1204,00;92,20
1203,00;92,17
1202,00;92,16
1201,00;92,14
1200,00;92,13
1199,00;92,10
1198,00;92,05
1197,00;91,99
1196,00;91,94
1195,00;91,90
1194,00;91,87
1193,00;91,83
1192,00;91,79
1191,00;91,76
1190,00;91,74
1189,00;91,73
1188,00;91,72
1187,00;91,72
1186,00;91,71
1185,00;91,71
1184,00;91,71
1183,00;91,71
1182,00;91,71
1181,00;91,70
1180,00;91,69
1179,00;91,67
1178,00;91,64
1177,00;91,61
1176,00;91,59
1175,00;91,59
1174,00;91,59
1173,00;91,59
1172,00;91,58
1171,00;91,59
1170,00;91,59
1169,00;91,59
1168,00;91,59
1167,00;91,58
1166,00;91,57
1165,00;91,57
1164,00;91,58
1163,00;91,58
1162,00;91,57
1161,00;91,57
1160,00;91,57
1159,00;91,56
1158,00;91,56
1157,00;91,55
1156,00;91,55
1155,00;91,54
1154,00;91,53
1153,00;91,52
1152,00;91,52
1151,00;91,53
1150,00;91,55
1149,00;91,56
1148,00;91,56
1147,00;91,54
1146,00;91,52
1145,00;91,51
1144,00;91,50
1143,00;91,50
1142,00;91,49
1141,00;91,50
1140,00;91,52
1139,00;91,54
1138,00;91,56
1137,00;91,55
1136,00;91,53
1135,00;91,51
1134,00;91,48
1133,00;91,45
1132,00;91,44
1131,00;91,43
1130,00;91,43
1129,00;91,43
1128,00;91,43
1127,00;91,44
1126,00;91,45
1125,00;91,46
1124,00;91,47
1123,00;91,49
1122,00;91,50
1121,00;91,50
1120,00;91,50
1119,00;91,51
1118,00;91,51
1117,00;91,50
1116,00;91,46
1115,00;91,43
1114,00;91,41
1113,00;91,41
1112,00;91,42
1111,00;91,42
1110,00;91,41
1109,00;91,40
1108,00;91,39
1107,00;91,39
1106,00;91,38
1105,00;91,36
1104,00;91,33
1103,00;91,32
1102,00;91,32
1101,00;91,35
1100,00;91,37
1099,00;91,38
1098,00;91,37
1097,00;91,35
1096,00;91,32
1095,00;91,31
1094,00;91,30
1093,00;91,32
1092,00;91,35
1091,00;91,38
1090,00;91,38
1089,00;91,35
1088,00;91,32
1087,00;91,30
1086,00;91,29
1085,00;91,27
1084,00;91,26
1083,00;91,24
1082,00;91,24
1081,00;91,25
1080,00;91,25
1079,00;91,24
1078,00;91,22
1077,00;91,21
1076,00;91,21
1075,00;91,22
1074,00;91,21
1073,00;91,18
1072,00;91,15
1071,00;91,14
1070,00;91,14
1069,00;91,15
1068,00;91,16
1067,00;91,18
1066,00;91,20
1065,00;91,22
1064,00;91,22
1063,00;91,21
1062,00;91,19
1061,00;91,17
1060,00;91,16
1059,00;91,15
1058,00;91,12
1057,00;91,06
1056,00;91,01
1055,00;90,97
1054,00;90,96
1053,00;90,97
1052,00;91,01
1051,00;91,05
1050,00;91,08
1049,00;91,08
1048,00;91,05
1047,00;91,02
1046,00;91,00
1045,00;90,98
1044,00;90,98
1043,00;90,96
1042,00;90,93
1041,00;90,90
1040,00;90,88
1039,00;90,88
1038,00;90,88
1037,00;90,88
1036,00;90,88
1035,00;90,87
1034,00;90,85
1033,00;90,85
1032,00;90,84
1031,00;90,83
1030,00;90,82
1029,00;90,81
1028,00;90,80
1027,00;90,79
1026,00;90,78
1025,00;90,78
1024,00;90,78
1023,00;90,77
1022,00;90,77
1021,00;90,76
1020,00;90,75
1019,00;90,73
1018,00;90,70
1017,00;90,66
1016,00;90,63
1015,00;90,58
1014,00;90,55
1013,00;90,54
1012,00;90,54
1011,00;90,55
1010,00;90,55
1009,00;90,54
1008,00;90,53
1007,00;90,51
1006,00;90,48
1005,00;90,45
1004,00;90,42
1003,00;90,39
1002,00;90,35
1001,00;90,33
1000,00;90,31
999,00;90,31
998,00;90,31
997,00;90,31
996,00;90,30
995,00;90,29
994,00;90,27
993,00;90,24
992,00;90,20
991,00;90,17
990,00;90,13
989,00;90,10
988,00;90,05
987,00;90,00
986,00;89,96
985,00;89,93
984,00;89,90
983,00;89,87
982,00;89,84
981,00;89,81
980,00;89,79
979,00;89,76
978,00;89,72
977,00;89,67
976,00;89,64
975,00;89,61
974,00;89,60
973,00;89,58
972,00;89,56
971,00;89,52
970,00;89,48
969,00;89,43
968,00;89,38
967,00;89,34
966,00;89,31
965,00;89,27
964,00;89,23
963,00;89,19
962,00;89,15
961,00;89,10
960,00;89,05
959,00;89,00
958,00;88,96
957,00;88,93
956,00;88,90
955,00;88,87
954,00;88,82
953,00;88,77
952,00;88,72
951,00;88,69
950,00;88,65
949,00;88,59
948,00;88,52
947,00;88,45
946,00;88,40
945,00;88,37
944,00;88,33
943,00;88,28
942,00;88,21
941,00;88,12
940,00;88,05
939,00;87,99
938,00;87,94
937,00;87,87
936,00;87,80
935,00;87,74
934,00;87,70
933,00;87,66
932,00;87,61
931,00;87,54
930,00;87,45
929,00;87,35
928,00;87,25
927,00;87,18
926,00;87,11
925,00;87,05
924,00;86,98
923,00;86,91
922,00;86,83
921,00;86,74
920,00;86,65
919,00;86,57
918,00;86,50
917,00;86,42
916,00;86,32
915,00;86,23
914,00;86,14
913,00;86,07
912,00;85,98
911,00;85,88
910,00;85,76
909,00;85,65
908,00;85,56
907,00;85,50
906,00;85,45
905,00;85,39
904,00;85,29
903,00;85,16
902,00;85,02
901,00;84,90
900,00;84,80
899,00;84,72
898,00;84,64
897,00;84,56
896,00;84,46
895,00;84,36
894,00;84,24
893,00;84,10
892,00;83,95
891,00;83,81
890,00;83,70
889,00;83,60
888,00;83,50
887,00;83,40
886,00;83,28
885,00;83,16
884,00;83,04
883,00;82,92
882,00;82,80
881,00;82,68
880,00;82,55
879,00;82,44
878,00;82,32
877,00;82,20
876,00;82,06
875,00;81,93
874,00;81,79
873,00;81,64
872,00;81,47
871,00;81,31
870,00;81,17
869,00;81,01
868,00;80,86
867,00;80,71
866,00;80,59
865,00;80,45
864,00;80,30
863,00;80,13
862,00;79,97
861,00;79,82
860,00;79,68
859,00;79,54
858,00;79,41
857,00;79,28
856,00;79,13
855,00;78,98
854,00;78,83
853,00;78,67
852,00;78,51
851,00;78,36
850,00;78,22
849,00;78,07
848,00;77,91
847,00;77,73
846,00;77,55
845,00;77,38
844,00;77,23
843,00;77,10
842,00;76,97
841,00;76,81
840,00;76,63
839,00;76,48
838,00;76,34
837,00;76,21
836,00;76,06
835,00;75,90
834,00;75,75
833,00;75,60
832,00;75,43
831,00;75,26
830,00;75,09
829,00;74,90
828,00;74,69
827,00;74,49
826,00;74,32
825,00;74,16
824,00;73,99
823,00;73,83
822,00;73,69
821,00;73,53
820,00;73,37
819,00;73,22
818,00;73,08
817,00;72,94
816,00;72,78
815,00;72,60
814,00;72,42
813,00;72,24
812,00;72,03
811,00;71,84
810,00;71,67
809,00;71,52
808,00;71,36
807,00;71,20
806,00;71,03
805,00;70,83
804,00;70,63
803,00;70,46
802,00;70,34
801,00;70,22
800,00;70,08
799,00;69,92
798,00;69,75
797,00;69,56
796,00;69,36
795,00;69,19
794,00;69,06
793,00;68,93
792,00;68,78
791,00;68,61
790,00;68,44
789,00;68,26
788,00;68,08
787,00;67,91
786,00;67,75
785,00;67,58
784,00;67,39
783,00;67,20
782,00;67,01
781,00;66,82
780,00;66,63
779,00;66,46
778,00;66,32
777,00;66,16
776,00;65,98
775,00;65,80
774,00;65,67
773,00;65,54
772,00;65,39
771,00;65,22
770,00;65,05
769,00;64,88
768,00;64,71
767,00;64,55
766,00;64,40
765,00;64,22
764,00;64,02
763,00;63,82
762,00;63,66
761,00;63,50
760,00;63,34
759,00;63,18
758,00;63,04
757,00;62,88
756,00;62,71
755,00;62,56
754,00;62,43
753,00;62,30
752,00;62,14
751,00;61,98
750,00;61,85
749,00;61,70
748,00;61,53
747,00;61,37
746,00;61,22
745,00;61,06
744,00;60,88
743,00;60,71
742,00;60,56
741,00;60,39
740,00;60,20
739,00;60,02
738,00;59,86
737,00;59,70
736,00;59,51
735,00;59,33
734,00;59,19
733,00;59,06
732,00;58,94
731,00;58,82
730,00;58,72
729,00;58,58
728,00;58,40
727,00;58,23
726,00;58,09
725,00;57,94
724,00;57,75
723,00;57,56
722,00;57,40
721,00;57,26
720,00;57,09
719,00;56,92
718,00;56,77
717,00;56,62
716,00;56,44
715,00;56,27
714,00;56,14
713,00;56,01
712,00;55,87
711,00;55,74
710,00;55,64
709,00;55,52
708,00;55,33
707,00;55,15
706,00;55,01
705,00;54,88
704,00;54,73
703,00;54,58
702,00;54,43
701,00;54,28
700,00;54,12
699,00;53,97
698,00;53,85
697,00;53,71
696,00;53,55
695,00;53,39
694,00;53,28
693,00;53,17
692,00;53,04
691,00;52,90
690,00;52,78
689,00;52,62
688,00;52,44
687,00;52,29
686,00;52,19
685,00;52,06
684,00;51,88
683,00;51,69
682,00;51,54
681,00;51,37
680,00;51,16
679,00;51,00
678,00;50,91
677,00;50,82
676,00;50,67
675,00;50,51
674,00;50,38
673,00;50,26
672,00;50,11
671,00;49,97
670,00;49,85
669,00;49,66
668,00;49,36
667,00;49,20
666,00;49,19
665,00;49,13
664,00;48,97
663,00;48,79
662,00;48,67
661,00;48,56
660,00;48,42
659,00;48,34
658,00;48,35
657,00;48,37
656,00;48,35
655,00;48,31
654,00;48,28
653,00;48,18
652,00;47,97
651,00;47,77
650,00;47,64
649,00;47,49
648,00;47,26
647,00;47,06
646,00;46,96
645,00;46,83
644,00;46,61
643,00;46,44
642,00;46,44
641,00;46,46
640,00;46,35
639,00;46,20
638,00;46,13
637,00;46,01
636,00;45,79
635,00;45,63
634,00;45,67
633,00;45,74
632,00;45,67
631,00;45,56
630,00;45,49
629,00;45,34
628,00;45,01
627,00;44,69
626,00;44,56
625,00;44,48
624,00;44,25
623,00;44,06
622,00;44,03
621,00;43,98
620,00;43,73
619,00;43,52
618,00;43,59
617,00;43,69
616,00;43,65
615,00;43,69
614,00;43,87
613,00;43,77
612,00;43,25
611,00;42,79
610,00;42,74
609,00;42,79
608,00;42,65
607,00;42,51
606,00;42,58
605,00;42,61
604,00;42,44
603,00;42,28
602,00;42,24
601,00;42,03
600,00;41,57
