Created as New Dataset;Sample 006 By Administrator Date maandag, maart 02 2026
cm-1;%T
4000,00;99,16
3999,00;99,14
3998,00;99,13
3997,00;99,11
3996,00;99,11
3995,00;99,12
3994,00;99,13
3993,00;99,15
3992,00;99,16
3991,00;99,17
3990,00;99,17
3989,00;99,17
3988,00;99,16
3987,00;99,13
3986,00;99,11
3985,00;99,10
3984,00;99,12
3983,00;99,13
3982,00;99,14
3981,00;99,13
3980,00;99,11
3979,00;99,08
3978,00;99,06
3977,00;99,06
3976,00;99,07
3975,00;99,09
3974,00;99,11
3973,00;99,13
3972,00;99,15
3971,00;99,16
3970,00;99,16
3969,00;99,16
3968,00;99,15
3967,00;99,14
3966,00;99,14
3965,00;99,14
3964,00;99,14
3963,00;99,14
3962,00;99,13
3961,00;99,11
3960,00;99,10
3959,00;99,09
3958,00;99,10
3957,00;99,11
3956,00;99,11
3955,00;99,11
3954,00;99,10
3953,00;99,09
3952,00;99,10
3951,00;99,12
3950,00;99,14
3949,00;99,16
3948,00;99,16
3947,00;99,15
3946,00;99,13
3945,00;99,13
3944,00;99,14
3943,00;99,17
3942,00;99,18
3941,00;99,17
3940,00;99,15
3939,00;99,14
3938,00;99,13
3937,00;99,13
3936,00;99,14
3935,00;99,14
3934,00;99,14
3933,00;99,14
3932,00;99,15
3931,00;99,16
3930,00;99,16
3929,00;99,16
3928,00;99,14
3927,00;99,12
3926,00;99,11
3925,00;99,10
3924,00;99,10
3923,00;99,10
3922,00;99,10
3921,00;99,10
3920,00;99,10
3919,00;99,10
3918,00;99,13
3917,00;99,17
3916,00;99,20
3915,00;99,22
3914,00;99,20
3913,00;99,18
3912,00;99,15
3911,00;99,12
3910,00;99,10
3909,00;99,09
3908,00;99,07
3907,00;99,05
3906,00;99,04
3905,00;99,06
3904,00;99,09
3903,00;99,13
3902,00;99,15
3901,00;99,16
3900,00;99,17
3899,00;99,17
3898,00;99,16
3897,00;99,14
3896,00;99,12
3895,00;99,09
3894,00;99,08
3893,00;99,08
3892,00;99,11
3891,00;99,12
3890,00;99,11
3889,00;99,08
3888,00;99,05
3887,00;99,06
3886,00;99,08
3885,00;99,11
3884,00;99,11
3883,00;99,11
3882,00;99,13
3881,00;99,17
3880,00;99,20
3879,00;99,18
3878,00;99,12
3877,00;99,07
3876,00;99,06
3875,00;99,07
3874,00;99,09
3873,00;99,08
3872,00;99,07
3871,00;99,08
3870,00;99,09
3869,00;99,08
3868,00;99,04
3867,00;99,00
3866,00;98,98
3865,00;99,01
3864,00;99,05
3863,00;99,10
3862,00;99,13
3861,00;99,13
3860,00;99,11
3859,00;99,08
3858,00;99,05
3857,00;99,03
3856,00;99,02
3855,00;99,03
3854,00;99,07
3853,00;99,11
3852,00;99,11
3851,00;99,08
3850,00;99,07
3849,00;99,07
3848,00;99,08
3847,00;99,09
3846,00;99,08
3845,00;99,08
3844,00;99,08
3843,00;99,06
3842,00;99,04
3841,00;99,01
3840,00;99,00
3839,00;99,01
3838,00;99,04
3837,00;99,07
3836,00;99,09
3835,00;99,10
3834,00;99,10
3833,00;99,08
3832,00;99,05
3831,00;99,01
3830,00;98,97
3829,00;98,95
3828,00;98,96
3827,00;98,99
3826,00;99,02
3825,00;99,02
3824,00;99,00
3823,00;98,96
3822,00;98,95
3821,00;98,97
3820,00;98,98
3819,00;98,98
3818,00;98,98
3817,00;98,99
3816,00;99,02
3815,00;99,04
3814,00;99,05
3813,00;99,07
3812,00;99,07
3811,00;99,05
3810,00;99,02
3809,00;98,98
3808,00;98,95
3807,00;98,94
3806,00;98,93
3805,00;98,90
3804,00;98,88
3803,00;98,89
3802,00;98,92
3801,00;98,95
3800,00;98,94
3799,00;98,93
3798,00;98,93
3797,00;98,96
3796,00;98,99
3795,00;98,98
3794,00;98,97
3793,00;98,96
3792,00;98,97
3791,00;98,98
3790,00;98,97
3789,00;98,95
3788,00;98,93
3787,00;98,92
3786,00;98,92
3785,00;98,94
3784,00;98,95
3783,00;98,94
3782,00;98,92
3781,00;98,90
3780,00;98,90
3779,00;98,89
3778,00;98,87
3777,00;98,84
3776,00;98,82
3775,00;98,80
3774,00;98,77
3773,00;98,75
3772,00;98,74
3771,00;98,76
3770,00;98,80
3769,00;98,85
3768,00;98,88
3767,00;98,89
3766,00;98,89
3765,00;98,87
3764,00;98,83
3763,00;98,78
3762,00;98,74
3761,00;98,71
3760,00;98,71
3759,00;98,71
3758,00;98,73
3757,00;98,73
3756,00;98,71
3755,00;98,68
3754,00;98,63
3753,00;98,59
3752,00;98,56
3751,00;98,58
3750,00;98,61
3749,00;98,62
3748,00;98,60
3747,00;98,57
3746,00;98,57
3745,00;98,58
3744,00;98,59
3743,00;98,57
3742,00;98,54
3741,00;98,53
3740,00;98,52
3739,00;98,51
3738,00;98,48
3737,00;98,47
3736,00;98,45
3735,00;98,44
3734,00;98,42
3733,00;98,41
3732,00;98,40
3731,00;98,39
3730,00;98,38
3729,00;98,37
3728,00;98,36
3727,00;98,35
3726,00;98,34
3725,00;98,33
3724,00;98,32
3723,00;98,31
3722,00;98,31
3721,00;98,30
3720,00;98,28
3719,00;98,25
3718,00;98,22
3717,00;98,17
3716,00;98,11
3715,00;98,03
3714,00;97,95
3713,00;97,89
3712,00;97,85
3711,00;97,83
3710,00;97,82
3709,00;97,78
3708,00;97,74
3707,00;97,69
3706,00;97,65
3705,00;97,61
3704,00;97,55
3703,00;97,50
3702,00;97,44
3701,00;97,38
3700,00;97,33
3699,00;97,29
3698,00;97,24
3697,00;97,18
3696,00;97,11
3695,00;97,03
3694,00;96,95
3693,00;96,87
3692,00;96,77
3691,00;96,66
3690,00;96,55
3689,00;96,44
3688,00;96,32
3687,00;96,21
3686,00;96,10
3685,00;96,01
3684,00;95,93
3683,00;95,84
3682,00;95,74
3681,00;95,63
3680,00;95,52
3679,00;95,40
3678,00;95,28
3677,00;95,13
3676,00;94,94
3675,00;94,73
3674,00;94,55
3673,00;94,42
3672,00;94,32
3671,00;94,19
3670,00;94,01
3669,00;93,80
3668,00;93,61
3667,00;93,46
3666,00;93,32
3665,00;93,19
3664,00;93,03
3663,00;92,87
3662,00;92,69
3661,00;92,52
3660,00;92,36
3659,00;92,20
3658,00;92,04
3657,00;91,86
3656,00;91,66
3655,00;91,47
3654,00;91,31
3653,00;91,18
3652,00;91,05
3651,00;90,86
3650,00;90,64
3649,00;90,41
3648,00;90,20
3647,00;90,01
3646,00;89,84
3645,00;89,69
3644,00;89,56
3643,00;89,43
3642,00;89,30
3641,00;89,15
3640,00;88,99
3639,00;88,81
3638,00;88,63
3637,00;88,45
3636,00;88,29
3635,00;88,13
3634,00;87,99
3633,00;87,86
3632,00;87,75
3631,00;87,64
3630,00;87,49
3629,00;87,28
3628,00;87,06
3627,00;86,87
3626,00;86,74
3625,00;86,63
3624,00;86,52
3623,00;86,41
3622,00;86,30
3621,00;86,17
3620,00;86,04
3619,00;85,89
3618,00;85,73
3617,00;85,58
3616,00;85,44
3615,00;85,30
3614,00;85,15
3613,00;85,01
3612,00;84,88
3611,00;84,76
3610,00;84,64
3609,00;84,52
3608,00;84,37
3607,00;84,22
3606,00;84,09
3605,00;83,96
3604,00;83,84
3603,00;83,70
3602,00;83,56
3601,00;83,40
3600,00;83,26
3599,00;83,13
3598,00;83,02
3597,00;82,92
3596,00;82,81
3595,00;82,68
3594,00;82,53
3593,00;82,37
3592,00;82,22
3591,00;82,09
3590,00;81,96
3589,00;81,82
3588,00;81,65
3587,00;81,46
3586,00;81,28
3585,00;81,12
3584,00;80,98
3583,00;80,85
3582,00;80,73
3581,00;80,61
3580,00;80,47
3579,00;80,31
3578,00;80,14
3577,00;79,99
3576,00;79,84
3575,00;79,70
3574,00;79,56
3573,00;79,44
3572,00;79,32
3571,00;79,22
3570,00;79,11
3569,00;78,98
3568,00;78,81
3567,00;78,60
3566,00;78,40
3565,00;78,23
3564,00;78,08
3563,00;77,93
3562,00;77,79
3561,00;77,65
3560,00;77,52
3559,00;77,38
3558,00;77,23
3557,00;77,07
3556,00;76,89
3555,00;76,72
3554,00;76,56
3553,00;76,41
3552,00;76,26
3551,00;76,12
3550,00;76,00
3549,00;75,87
3548,00;75,73
3547,00;75,56
3546,00;75,35
3545,00;75,15
3544,00;74,96
3543,00;74,79
3542,00;74,65
3541,00;74,51
3540,00;74,38
3539,00;74,24
3538,00;74,08
3537,00;73,91
3536,00;73,74
3535,00;73,58
3534,00;73,43
3533,00;73,29
3532,00;73,16
3531,00;73,01
3530,00;72,86
3529,00;72,70
3528,00;72,53
3527,00;72,36
3526,00;72,19
3525,00;72,03
3524,00;71,87
3523,00;71,71
3522,00;71,55
3521,00;71,40
3520,00;71,25
3519,00;71,09
3518,00;70,93
3517,00;70,76
3516,00;70,60
3515,00;70,45
3514,00;70,31
3513,00;70,17
3512,00;70,02
3511,00;69,86
3510,00;69,69
3509,00;69,52
3508,00;69,36
3507,00;69,22
3506,00;69,09
3505,00;68,94
3504,00;68,76
3503,00;68,58
3502,00;68,40
3501,00;68,24
3500,00;68,09
3499,00;67,94
3498,00;67,79
3497,00;67,63
3496,00;67,47
3495,00;67,31
3494,00;67,17
3493,00;67,04
3492,00;66,90
3491,00;66,75
3490,00;66,60
3489,00;66,44
3488,00;66,28
3487,00;66,12
3486,00;65,96
3485,00;65,80
3484,00;65,64
3483,00;65,49
3482,00;65,34
3481,00;65,19
3480,00;65,04
3479,00;64,90
3478,00;64,76
3477,00;64,62
3476,00;64,47
3475,00;64,31
3474,00;64,15
3473,00;63,98
3472,00;63,81
3471,00;63,64
3470,00;63,48
3469,00;63,32
3468,00;63,16
3467,00;62,99
3466,00;62,84
3465,00;62,69
3464,00;62,54
3463,00;62,38
3462,00;62,23
3461,00;62,08
3460,00;61,93
3459,00;61,80
3458,00;61,67
3457,00;61,53
3456,00;61,39
3455,00;61,25
3454,00;61,10
3453,00;60,95
3452,00;60,79
3451,00;60,63
3450,00;60,49
3449,00;60,34
3448,00;60,18
3447,00;60,01
3446,00;59,86
3445,00;59,71
3444,00;59,57
3443,00;59,43
3442,00;59,29
3441,00;59,14
3440,00;58,98
3439,00;58,81
3438,00;58,63
3437,00;58,46
3436,00;58,30
3435,00;58,17
3434,00;58,04
3433,00;57,91
3432,00;57,78
3431,00;57,63
3430,00;57,49
3429,00;57,35
3428,00;57,22
3427,00;57,10
3426,00;56,96
3425,00;56,82
3424,00;56,68
3423,00;56,54
3422,00;56,39
3421,00;56,25
3420,00;56,12
3419,00;56,00
3418,00;55,89
3417,00;55,78
3416,00;55,66
3415,00;55,53
3414,00;55,40
3413,00;55,26
3412,00;55,12
3411,00;55,00
3410,00;54,88
3409,00;54,76
3408,00;54,65
3407,00;54,54
3406,00;54,42
3405,00;54,30
3404,00;54,17
3403,00;54,05
3402,00;53,94
3401,00;53,83
3400,00;53,72
3399,00;53,63
3398,00;53,53
3397,00;53,44
3396,00;53,34
3395,00;53,23
3394,00;53,13
3393,00;53,03
3392,00;52,93
3391,00;52,84
3390,00;52,77
3389,00;52,71
3388,00;52,65
3387,00;52,58
3386,00;52,49
3385,00;52,39
3384,00;52,29
3383,00;52,21
3382,00;52,14
3381,00;52,07
3380,00;52,00
3379,00;51,93
3378,00;51,87
3377,00;51,81
3376,00;51,75
3375,00;51,69
3374,00;51,64
3373,00;51,59
3372,00;51,54
3371,00;51,49
3370,00;51,43
3369,00;51,37
3368,00;51,33
3367,00;51,28
3366,00;51,24
3365,00;51,18
3364,00;51,13
3363,00;51,09
3362,00;51,05
3361,00;51,02
3360,00;50,99
3359,00;50,97
3358,00;50,95
3357,00;50,94
3356,00;50,91
3355,00;50,88
3354,00;50,85
3353,00;50,81
3352,00;50,78
3351,00;50,76
3350,00;50,74
3349,00;50,72
3348,00;50,70
3347,00;50,68
3346,00;50,66
3345,00;50,64
3344,00;50,62
3343,00;50,61
3342,00;50,59
3341,00;50,57
3340,00;50,56
3339,00;50,55
3338,00;50,54
3337,00;50,53
3336,00;50,52
3335,00;50,51
3334,00;50,51
3333,00;50,52
3332,00;50,51
3331,00;50,51
3330,00;50,50
3329,00;50,50
3328,00;50,50
3327,00;50,51
3326,00;50,51
3325,00;50,51
3324,00;50,50
3323,00;50,50
3322,00;50,50
3321,00;50,50
3320,00;50,51
3319,00;50,51
3318,00;50,52
3317,00;50,53
3316,00;50,55
3315,00;50,56
3314,00;50,57
3313,00;50,57
3312,00;50,57
3311,00;50,56
3310,00;50,54
3309,00;50,54
3308,00;50,53
3307,00;50,54
3306,00;50,55
3305,00;50,55
3304,00;50,55
3303,00;50,54
3302,00;50,54
3301,00;50,54
3300,00;50,56
3299,00;50,57
3298,00;50,59
3297,00;50,60
3296,00;50,61
3295,00;50,63
3294,00;50,65
3293,00;50,66
3292,00;50,65
3291,00;50,64
3290,00;50,63
3289,00;50,62
3288,00;50,62
3287,00;50,63
3286,00;50,64
3285,00;50,65
3284,00;50,65
3283,00;50,67
3282,00;50,68
3281,00;50,69
3280,00;50,69
3279,00;50,69
3278,00;50,70
3277,00;50,70
3276,00;50,70
3275,00;50,71
3274,00;50,70
3273,00;50,70
3272,00;50,70
3271,00;50,71
3270,00;50,73
3269,00;50,76
3268,00;50,77
3267,00;50,79
3266,00;50,79
3265,00;50,80
3264,00;50,81
3263,00;50,82
3262,00;50,83
3261,00;50,85
3260,00;50,87
3259,00;50,89
3258,00;50,92
3257,00;50,94
3256,00;50,94
3255,00;50,95
3254,00;50,96
3253,00;50,98
3252,00;51,01
3251,00;51,04
3250,00;51,08
3249,00;51,11
3248,00;51,13
3247,00;51,16
3246,00;51,19
3245,00;51,23
3244,00;51,26
3243,00;51,31
3242,00;51,36
3241,00;51,41
3240,00;51,45
3239,00;51,50
3238,00;51,54
3237,00;51,58
3236,00;51,62
3235,00;51,67
3234,00;51,72
3233,00;51,77
3232,00;51,82
3231,00;51,88
3230,00;51,95
3229,00;52,01
3228,00;52,06
3227,00;52,12
3226,00;52,20
3225,00;52,29
3224,00;52,38
3223,00;52,47
3222,00;52,55
3221,00;52,63
3220,00;52,71
3219,00;52,79
3218,00;52,87
3217,00;52,95
3216,00;53,03
3215,00;53,12
3214,00;53,22
3213,00;53,33
3212,00;53,44
3211,00;53,56
3210,00;53,67
3209,00;53,78
3208,00;53,89
3207,00;54,00
3206,00;54,11
3205,00;54,22
3204,00;54,34
3203,00;54,46
3202,00;54,59
3201,00;54,71
3200,00;54,84
3199,00;54,98
3198,00;55,13
3197,00;55,28
3196,00;55,41
3195,00;55,54
3194,00;55,67
3193,00;55,80
3192,00;55,95
3191,00;56,11
3190,00;56,27
3189,00;56,43
3188,00;56,58
3187,00;56,73
3186,00;56,87
3185,00;57,02
3184,00;57,19
3183,00;57,36
3182,00;57,55
3181,00;57,74
3180,00;57,91
3179,00;58,08
3178,00;58,24
3177,00;58,40
3176,00;58,57
3175,00;58,75
3174,00;58,94
3173,00;59,12
3172,00;59,31
3171,00;59,50
3170,00;59,69
3169,00;59,88
3168,00;60,06
3167,00;60,24
3166,00;60,42
3165,00;60,60
3164,00;60,79
3163,00;60,98
3162,00;61,18
3161,00;61,38
3160,00;61,57
3159,00;61,77
3158,00;61,97
3157,00;62,18
3156,00;62,39
3155,00;62,59
3154,00;62,78
3153,00;62,98
3152,00;63,18
3151,00;63,40
3150,00;63,62
3149,00;63,84
3148,00;64,05
3147,00;64,25
3146,00;64,45
3145,00;64,65
3144,00;64,85
3143,00;65,06
3142,00;65,28
3141,00;65,49
3140,00;65,69
3139,00;65,90
3138,00;66,10
3137,00;66,31
3136,00;66,52
3135,00;66,73
3134,00;66,95
3133,00;67,17
3132,00;67,39
3131,00;67,60
3130,00;67,81
3129,00;68,02
3128,00;68,24
3127,00;68,45
3126,00;68,67
3125,00;68,90
3124,00;69,11
3123,00;69,32
3122,00;69,52
3121,00;69,71
3120,00;69,90
3119,00;70,09
3118,00;70,29
3117,00;70,50
3116,00;70,72
3115,00;70,95
3114,00;71,17
3113,00;71,39
3112,00;71,59
3111,00;71,79
3110,00;72,00
3109,00;72,20
3108,00;72,41
3107,00;72,61
3106,00;72,82
3105,00;73,03
3104,00;73,24
3103,00;73,45
3102,00;73,65
3101,00;73,84
3100,00;74,03
3099,00;74,22
3098,00;74,42
3097,00;74,61
3096,00;74,81
3095,00;75,01
3094,00;75,22
3093,00;75,42
3092,00;75,62
3091,00;75,79
3090,00;75,96
3089,00;76,13
3088,00;76,32
3087,00;76,50
3086,00;76,69
3085,00;76,86
3084,00;77,04
3083,00;77,22
3082,00;77,41
3081,00;77,60
3080,00;77,79
3079,00;77,98
3078,00;78,16
3077,00;78,34
3076,00;78,52
3075,00;78,70
3074,00;78,89
3073,00;79,08
3072,00;79,27
3071,00;79,46
3070,00;79,63
3069,00;79,79
3068,00;79,95
3067,00;80,11
3066,00;80,28
3065,00;80,45
3064,00;80,61
3063,00;80,78
3062,00;80,94
3061,00;81,09
3060,00;81,25
3059,00;81,40
3058,00;81,56
3057,00;81,72
3056,00;81,87
3055,00;82,02
3054,00;82,17
3053,00;82,32
3052,00;82,47
3051,00;82,62
3050,00;82,78
3049,00;82,95
3048,00;83,10
3047,00;83,26
3046,00;83,41
3045,00;83,55
3044,00;83,70
3043,00;83,85
3042,00;83,99
3041,00;84,13
3040,00;84,26
3039,00;84,40
3038,00;84,55
3037,00;84,71
3036,00;84,86
3035,00;85,00
3034,00;85,14
3033,00;85,27
3032,00;85,40
3031,00;85,52
3030,00;85,65
3029,00;85,78
3028,00;85,91
3027,00;86,04
3026,00;86,17
3025,00;86,31
3024,00;86,44
3023,00;86,57
3022,00;86,69
3021,00;86,82
3020,00;86,94
3019,00;87,06
3018,00;87,18
3017,00;87,30
3016,00;87,41
3015,00;87,52
3014,00;87,63
3013,00;87,74
3012,00;87,85
3011,00;87,96
3010,00;88,07
3009,00;88,18
3008,00;88,29
3007,00;88,40
3006,00;88,51
3005,00;88,62
3004,00;88,72
3003,00;88,82
3002,00;88,91
3001,00;89,01
3000,00;89,12
2999,00;89,22
2998,00;89,32
2997,00;89,41
2996,00;89,50
2995,00;89,58
2994,00;89,67
2993,00;89,75
2992,00;89,84
2991,00;89,93
2990,00;90,03
2989,00;90,12
2988,00;90,21
2987,00;90,30
2986,00;90,39
2985,00;90,47
2984,00;90,56
2983,00;90,65
2982,00;90,75
2981,00;90,84
2980,00;90,93
2979,00;91,02
2978,00;91,10
2977,00;91,20
2976,00;91,29
2975,00;91,39
2974,00;91,50
2973,00;91,62
2972,00;91,73
2971,00;91,83
2970,00;91,91
2969,00;91,97
2968,00;92,02
2967,00;92,08
2966,00;92,14
2965,00;92,21
2964,00;92,27
2963,00;92,33
2962,00;92,39
2961,00;92,45
2960,00;92,52
2959,00;92,59
2958,00;92,67
2957,00;92,75
2956,00;92,82
2955,00;92,89
2954,00;92,96
2953,00;93,03
2952,00;93,10
2951,00;93,16
2950,00;93,22
2949,00;93,27
2948,00;93,33
2947,00;93,40
2946,00;93,47
2945,00;93,54
2944,00;93,60
2943,00;93,65
2942,00;93,71
2941,00;93,77
2940,00;93,83
2939,00;93,90
2938,00;93,97
2937,00;94,03
2936,00;94,09
2935,00;94,15
2934,00;94,21
2933,00;94,27
2932,00;94,34
2931,00;94,41
2930,00;94,48
2929,00;94,55
2928,00;94,61
2927,00;94,66
2926,00;94,72
2925,00;94,76
2924,00;94,80
2923,00;94,84
2922,00;94,88
2921,00;94,91
2920,00;94,94
2919,00;94,97
2918,00;95,00
2917,00;95,04
2916,00;95,09
2915,00;95,13
2914,00;95,17
2913,00;95,20
2912,00;95,23
2911,00;95,26
2910,00;95,29
2909,00;95,32
2908,00;95,34
2907,00;95,36
2906,00;95,39
2905,00;95,42
2904,00;95,47
2903,00;95,52
2902,00;95,56
2901,00;95,60
2900,00;95,64
2899,00;95,67
2898,00;95,71
2897,00;95,75
2896,00;95,79
2895,00;95,82
2894,00;95,85
2893,00;95,87
2892,00;95,89
2891,00;95,92
2890,00;95,95
2889,00;95,99
2888,00;96,02
2887,00;96,06
2886,00;96,09
2885,00;96,12
2884,00;96,15
2883,00;96,19
2882,00;96,22
2881,00;96,26
2880,00;96,29
2879,00;96,32
2878,00;96,35
2877,00;96,38
2876,00;96,41
2875,00;96,44
2874,00;96,47
2873,00;96,49
2872,00;96,51
2871,00;96,54
2870,00;96,57
2869,00;96,61
2868,00;96,65
2867,00;96,68
2866,00;96,71
2865,00;96,72
2864,00;96,75
2863,00;96,78
2862,00;96,82
2861,00;96,87
2860,00;96,91
2859,00;96,94
2858,00;96,96
2857,00;96,99
2856,00;97,02
2855,00;97,05
2854,00;97,07
2853,00;97,07
2852,00;97,08
2851,00;97,11
2850,00;97,14
2849,00;97,18
2848,00;97,22
2847,00;97,24
2846,00;97,26
2845,00;97,27
2844,00;97,27
2843,00;97,28
2842,00;97,29
2841,00;97,31
2840,00;97,32
2839,00;97,34
2838,00;97,36
2837,00;97,37
2836,00;97,38
2835,00;97,39
2834,00;97,40
2833,00;97,41
2832,00;97,43
2831,00;97,45
2830,00;97,47
2829,00;97,49
2828,00;97,51
2827,00;97,53
2826,00;97,55
2825,00;97,57
2824,00;97,58
2823,00;97,58
2822,00;97,60
2821,00;97,62
2820,00;97,65
2819,00;97,68
2818,00;97,69
2817,00;97,70
2816,00;97,70
2815,00;97,72
2814,00;97,74
2813,00;97,77
2812,00;97,78
2811,00;97,79
2810,00;97,80
2809,00;97,80
2808,00;97,82
2807,00;97,83
2806,00;97,85
2805,00;97,86
2804,00;97,88
2803,00;97,89
2802,00;97,90
2801,00;97,91
2800,00;97,92
2799,00;97,93
2798,00;97,95
2797,00;97,97
2796,00;97,98
2795,00;97,98
2794,00;97,99
2793,00;98,00
2792,00;98,01
2791,00;98,03
2790,00;98,04
2789,00;98,05
2788,00;98,07
2787,00;98,08
2786,00;98,10
2785,00;98,12
2784,00;98,13
2783,00;98,14
2782,00;98,14
2781,00;98,15
2780,00;98,15
2779,00;98,16
2778,00;98,18
2777,00;98,20
2776,00;98,22
2775,00;98,23
2774,00;98,24
2773,00;98,24
2772,00;98,25
2771,00;98,26
2770,00;98,27
2769,00;98,28
2768,00;98,29
2767,00;98,30
2766,00;98,30
2765,00;98,31
2764,00;98,31
2763,00;98,32
2762,00;98,33
2761,00;98,34
2760,00;98,35
2759,00;98,36
2758,00;98,36
2757,00;98,38
2756,00;98,39
2755,00;98,40
2754,00;98,41
2753,00;98,41
2752,00;98,42
2751,00;98,43
2750,00;98,45
2749,00;98,46
2748,00;98,47
2747,00;98,48
2746,00;98,48
2745,00;98,49
2744,00;98,48
2743,00;98,48
2742,00;98,48
2741,00;98,48
2740,00;98,49
2739,00;98,50
2738,00;98,51
2737,00;98,53
2736,00;98,54
2735,00;98,55
2734,00;98,56
2733,00;98,56
2732,00;98,56
2731,00;98,57
2730,00;98,57
2729,00;98,58
2728,00;98,60
2727,00;98,60
2726,00;98,60
2725,00;98,60
2724,00;98,60
2723,00;98,60
2722,00;98,60
2721,00;98,60
2720,00;98,60
2719,00;98,61
2718,00;98,62
2717,00;98,63
2716,00;98,64
2715,00;98,64
2714,00;98,65
2713,00;98,66
2712,00;98,67
2711,00;98,68
2710,00;98,69
2709,00;98,69
2708,00;98,69
2707,00;98,69
2706,00;98,70
2705,00;98,70
2704,00;98,71
2703,00;98,72
2702,00;98,72
2701,00;98,72
2700,00;98,73
2699,00;98,73
2698,00;98,75
2697,00;98,76
2696,00;98,76
2695,00;98,76
2694,00;98,76
2693,00;98,75
2692,00;98,75
2691,00;98,75
2690,00;98,75
2689,00;98,76
2688,00;98,77
2687,00;98,79
2686,00;98,79
2685,00;98,79
2684,00;98,78
2683,00;98,78
2682,00;98,78
2681,00;98,79
2680,00;98,80
2679,00;98,80
2678,00;98,81
2677,00;98,80
2676,00;98,80
2675,00;98,79
2674,00;98,79
2673,00;98,79
2672,00;98,80
2671,00;98,82
2670,00;98,83
2669,00;98,84
2668,00;98,83
2667,00;98,83
2666,00;98,84
2665,00;98,85
2664,00;98,86
2663,00;98,86
2662,00;98,87
2661,00;98,86
2660,00;98,86
2659,00;98,85
2658,00;98,85
2657,00;98,86
2656,00;98,87
2655,00;98,88
2654,00;98,88
2653,00;98,88
2652,00;98,87
2651,00;98,88
2650,00;98,88
2649,00;98,88
2648,00;98,88
2647,00;98,88
2646,00;98,89
2645,00;98,88
2644,00;98,88
2643,00;98,88
2642,00;98,88
2641,00;98,88
2640,00;98,88
2639,00;98,88
2638,00;98,87
2637,00;98,87
2636,00;98,86
2635,00;98,85
2634,00;98,85
2633,00;98,86
2632,00;98,87
2631,00;98,88
2630,00;98,90
2629,00;98,91
2628,00;98,91
2627,00;98,91
2626,00;98,91
2625,00;98,92
2624,00;98,92
2623,00;98,92
2622,00;98,92
2621,00;98,91
2620,00;98,90
2619,00;98,89
2618,00;98,88
2617,00;98,89
2616,00;98,89
2615,00;98,90
2614,00;98,90
2613,00;98,90
2612,00;98,90
2611,00;98,89
2610,00;98,88
2609,00;98,87
2608,00;98,86
2607,00;98,85
2606,00;98,85
2605,00;98,86
2604,00;98,87
2603,00;98,89
2602,00;98,91
2601,00;98,92
2600,00;98,92
2599,00;98,92
2598,00;98,91
2597,00;98,91
2596,00;98,90
2595,00;98,90
2594,00;98,91
2593,00;98,92
2592,00;98,93
2591,00;98,94
2590,00;98,95
2589,00;98,94
2588,00;98,92
2587,00;98,90
2586,00;98,89
2585,00;98,89
2584,00;98,89
2583,00;98,89
2582,00;98,88
2581,00;98,87
2580,00;98,86
2579,00;98,85
2578,00;98,86
2577,00;98,88
2576,00;98,89
2575,00;98,91
2574,00;98,91
2573,00;98,91
2572,00;98,91
2571,00;98,91
2570,00;98,92
2569,00;98,91
2568,00;98,91
2567,00;98,90
2566,00;98,91
2565,00;98,92
2564,00;98,93
2563,00;98,92
2562,00;98,91
2561,00;98,90
2560,00;98,90
2559,00;98,89
2558,00;98,89
2557,00;98,88
2556,00;98,87
2555,00;98,87
2554,00;98,87
2553,00;98,88
2552,00;98,88
2551,00;98,89
2550,00;98,88
2549,00;98,87
2548,00;98,86
2547,00;98,86
2546,00;98,86
2545,00;98,86
2544,00;98,86
2543,00;98,85
2542,00;98,85
2541,00;98,84
2540,00;98,82
2539,00;98,82
2538,00;98,84
2537,00;98,86
2536,00;98,87
2535,00;98,87
2534,00;98,86
2533,00;98,85
2532,00;98,84
2531,00;98,83
2530,00;98,82
2529,00;98,81
2528,00;98,80
2527,00;98,78
2526,00;98,76
2525,00;98,75
2524,00;98,76
2523,00;98,78
2522,00;98,80
2521,00;98,80
2520,00;98,79
2519,00;98,77
2518,00;98,74
2517,00;98,73
2516,00;98,74
2515,00;98,75
2514,00;98,77
2513,00;98,78
2512,00;98,78
2511,00;98,77
2510,00;98,76
2509,00;98,75
2508,00;98,73
2507,00;98,72
2506,00;98,72
2505,00;98,73
2504,00;98,73
2503,00;98,73
2502,00;98,73
2501,00;98,72
2500,00;98,72
2499,00;98,73
2498,00;98,74
2497,00;98,74
2496,00;98,73
2495,00;98,71
2494,00;98,68
2493,00;98,66
2492,00;98,64
2491,00;98,62
2490,00;98,62
2489,00;98,64
2488,00;98,68
2487,00;98,73
2486,00;98,75
2485,00;98,75
2484,00;98,73
2483,00;98,70
2482,00;98,69
2481,00;98,68
2480,00;98,68
2479,00;98,68
2478,00;98,67
2477,00;98,67
2476,00;98,66
2475,00;98,64
2474,00;98,63
2473,00;98,62
2472,00;98,62
2471,00;98,62
2470,00;98,63
2469,00;98,62
2468,00;98,62
2467,00;98,61
2466,00;98,61
2465,00;98,61
2464,00;98,59
2463,00;98,58
2462,00;98,57
2461,00;98,58
2460,00;98,60
2459,00;98,61
2458,00;98,61
2457,00;98,60
2456,00;98,59
2455,00;98,60
2454,00;98,61
2453,00;98,61
2452,00;98,59
2451,00;98,58
2450,00;98,58
2449,00;98,59
2448,00;98,59
2447,00;98,59
2446,00;98,58
2445,00;98,56
2444,00;98,53
2443,00;98,51
2442,00;98,51
2441,00;98,50
2440,00;98,50
2439,00;98,49
2438,00;98,49
2437,00;98,49
2436,00;98,49
2435,00;98,49
2434,00;98,47
2433,00;98,45
2432,00;98,43
2431,00;98,43
2430,00;98,45
2429,00;98,47
2428,00;98,47
2427,00;98,46
2426,00;98,45
2425,00;98,43
2424,00;98,42
2423,00;98,40
2422,00;98,40
2421,00;98,40
2420,00;98,41
2419,00;98,43
2418,00;98,44
2417,00;98,43
2416,00;98,41
2415,00;98,39
2414,00;98,37
2413,00;98,36
2412,00;98,35
2411,00;98,35
2410,00;98,35
2409,00;98,34
2408,00;98,34
2407,00;98,34
2406,00;98,34
2405,00;98,34
2404,00;98,33
2403,00;98,32
2402,00;98,31
2401,00;98,30
2400,00;98,29
2399,00;98,29
2398,00;98,29
2397,00;98,29
2396,00;98,29
2395,00;98,28
2394,00;98,28
2393,00;98,28
2392,00;98,27
2391,00;98,27
2390,00;98,25
2389,00;98,23
2388,00;98,21
2387,00;98,19
2386,00;98,18
2385,00;98,19
2384,00;98,20
2383,00;98,21
2382,00;98,21
2381,00;98,20
2380,00;98,19
2379,00;98,17
2378,00;98,14
2377,00;98,11
2376,00;98,07
2375,00;98,06
2374,00;98,06
2373,00;98,07
2372,00;98,08
2371,00;98,09
2370,00;98,10
2369,00;98,11
2368,00;98,10
2367,00;98,06
2366,00;98,01
2365,00;97,98
2364,00;97,95
2363,00;97,94
2362,00;97,95
2361,00;97,97
2360,00;97,99
2359,00;98,00
2358,00;97,99
2357,00;97,97
2356,00;97,94
2355,00;97,91
2354,00;97,89
2353,00;97,87
2352,00;97,86
2351,00;97,84
2350,00;97,82
2349,00;97,80
2348,00;97,78
2347,00;97,77
2346,00;97,76
2345,00;97,77
2344,00;97,80
2343,00;97,84
2342,00;97,86
2341,00;97,82
2340,00;97,73
2339,00;97,66
2338,00;97,65
2337,00;97,67
2336,00;97,70
2335,00;97,72
2334,00;97,73
2333,00;97,73
2332,00;97,72
2331,00;97,71
2330,00;97,71
2329,00;97,70
2328,00;97,69
2327,00;97,69
2326,00;97,69
2325,00;97,68
2324,00;97,66
2323,00;97,64
2322,00;97,64
2321,00;97,66
2320,00;97,69
2319,00;97,70
2318,00;97,70
2317,00;97,67
2316,00;97,63
2315,00;97,60
2314,00;97,59
2313,00;97,60
2312,00;97,60
2311,00;97,61
2310,00;97,63
2309,00;97,63
2308,00;97,63
2307,00;97,61
2306,00;97,60
2305,00;97,58
2304,00;97,57
2303,00;97,56
2302,00;97,56
2301,00;97,55
2300,00;97,53
2299,00;97,52
2298,00;97,51
2297,00;97,52
2296,00;97,51
2295,00;97,51
2294,00;97,50
2293,00;97,49
2292,00;97,47
2291,00;97,45
2290,00;97,44
2289,00;97,45
2288,00;97,45
2287,00;97,44
2286,00;97,42
2285,00;97,41
2284,00;97,39
2283,00;97,37
2282,00;97,37
2281,00;97,36
2280,00;97,34
2279,00;97,31
2278,00;97,29
2277,00;97,27
2276,00;97,28
2275,00;97,30
2274,00;97,32
2273,00;97,33
2272,00;97,32
2271,00;97,29
2270,00;97,24
2269,00;97,19
2268,00;97,15
2267,00;97,13
2266,00;97,13
2265,00;97,14
2264,00;97,14
2263,00;97,14
2262,00;97,13
2261,00;97,11
2260,00;97,09
2259,00;97,05
2258,00;97,03
2257,00;97,02
2256,00;97,02
2255,00;97,04
2254,00;97,07
2253,00;97,09
2252,00;97,10
2251,00;97,09
2250,00;97,06
2249,00;97,03
2248,00;97,00
2247,00;96,98
2246,00;96,96
2245,00;96,93
2244,00;96,91
2243,00;96,90
2242,00;96,89
2241,00;96,86
2240,00;96,82
2239,00;96,82
2238,00;96,87
2237,00;96,92
2236,00;96,95
2235,00;96,94
2234,00;96,90
2233,00;96,86
2232,00;96,81
2231,00;96,78
2230,00;96,78
2229,00;96,79
2228,00;96,78
2227,00;96,77
2226,00;96,76
2225,00;96,76
2224,00;96,78
2223,00;96,78
2222,00;96,76
2221,00;96,71
2220,00;96,66
2219,00;96,62
2218,00;96,61
2217,00;96,62
2216,00;96,65
2215,00;96,67
2214,00;96,67
2213,00;96,64
2212,00;96,61
2211,00;96,59
2210,00;96,59
2209,00;96,59
2208,00;96,59
2207,00;96,56
2206,00;96,52
2205,00;96,47
2204,00;96,46
2203,00;96,49
2202,00;96,55
2201,00;96,59
2200,00;96,59
2199,00;96,57
2198,00;96,55
2197,00;96,53
2196,00;96,50
2195,00;96,46
2194,00;96,43
2193,00;96,39
2192,00;96,36
2191,00;96,35
2190,00;96,36
2189,00;96,39
2188,00;96,40
2187,00;96,39
2186,00;96,36
2185,00;96,31
2184,00;96,27
2183,00;96,26
2182,00;96,28
2181,00;96,29
2180,00;96,28
2179,00;96,24
2178,00;96,20
2177,00;96,19
2176,00;96,20
2175,00;96,23
2174,00;96,24
2173,00;96,23
2172,00;96,23
2171,00;96,25
2170,00;96,26
2169,00;96,24
2168,00;96,18
2167,00;96,11
2166,00;96,08
2165,00;96,09
2164,00;96,11
2163,00;96,16
2162,00;96,20
2161,00;96,21
2160,00;96,18
2159,00;96,14
2158,00;96,12
2157,00;96,10
2156,00;96,07
2155,00;96,04
2154,00;96,03
2153,00;96,02
2152,00;96,02
2151,00;96,04
2150,00;96,08
2149,00;96,10
2148,00;96,08
2147,00;96,05
2146,00;96,01
2145,00;95,97
2144,00;95,94
2143,00;95,93
2142,00;95,93
2141,00;95,93
2140,00;95,91
2139,00;95,88
2138,00;95,85
2137,00;95,82
2136,00;95,83
2135,00;95,85
2134,00;95,89
2133,00;95,92
2132,00;95,93
2131,00;95,92
2130,00;95,89
2129,00;95,84
2128,00;95,78
2127,00;95,75
2126,00;95,75
2125,00;95,74
2124,00;95,75
2123,00;95,77
2122,00;95,81
2121,00;95,84
2120,00;95,84
2119,00;95,84
2118,00;95,84
2117,00;95,84
2116,00;95,84
2115,00;95,82
2114,00;95,82
2113,00;95,82
2112,00;95,82
2111,00;95,82
2110,00;95,84
2109,00;95,85
2108,00;95,85
2107,00;95,85
2106,00;95,85
2105,00;95,85
2104,00;95,85
2103,00;95,86
2102,00;95,88
2101,00;95,88
2100,00;95,87
2099,00;95,85
2098,00;95,84
2097,00;95,83
2096,00;95,83
2095,00;95,83
2094,00;95,84
2093,00;95,85
2092,00;95,85
2091,00;95,86
2090,00;95,87
2089,00;95,87
2088,00;95,87
2087,00;95,87
2086,00;95,87
2085,00;95,88
2084,00;95,88
2083,00;95,88
2082,00;95,90
2081,00;95,90
2080,00;95,89
2079,00;95,88
2078,00;95,89
2077,00;95,92
2076,00;95,95
2075,00;95,97
2074,00;95,99
2073,00;96,01
2072,00;96,01
2071,00;96,03
2070,00;96,05
2069,00;96,06
2068,00;96,07
2067,00;96,07
2066,00;96,08
2065,00;96,11
2064,00;96,13
2063,00;96,13
2062,00;96,12
2061,00;96,10
2060,00;96,10
2059,00;96,12
2058,00;96,15
2057,00;96,17
2056,00;96,18
2055,00;96,19
2054,00;96,21
2053,00;96,22
2052,00;96,22
2051,00;96,24
2050,00;96,26
2049,00;96,28
2048,00;96,30
2047,00;96,32
2046,00;96,36
2045,00;96,38
2044,00;96,36
2043,00;96,35
2042,00;96,38
2041,00;96,42
2040,00;96,43
2039,00;96,41
2038,00;96,40
2037,00;96,41
2036,00;96,44
2035,00;96,49
2034,00;96,53
2033,00;96,55
2032,00;96,54
2031,00;96,52
2030,00;96,53
2029,00;96,57
2028,00;96,62
2027,00;96,66
2026,00;96,69
2025,00;96,67
2024,00;96,61
2023,00;96,54
2022,00;96,50
2021,00;96,51
2020,00;96,54
2019,00;96,60
2018,00;96,66
2017,00;96,70
2016,00;96,68
2015,00;96,68
2014,00;96,70
2013,00;96,74
2012,00;96,75
2011,00;96,74
2010,00;96,73
2009,00;96,74
2008,00;96,76
2007,00;96,78
2006,00;96,80
2005,00;96,80
2004,00;96,78
2003,00;96,77
2002,00;96,77
2001,00;96,77
2000,00;96,76
1999,00;96,74
1998,00;96,72
1997,00;96,72
1996,00;96,74
1995,00;96,79
1994,00;96,85
1993,00;96,89
1992,00;96,91
1991,00;96,92
1990,00;96,93
1989,00;96,93
1988,00;96,94
1987,00;96,98
1986,00;97,06
1985,00;97,11
1984,00;97,10
1983,00;97,06
1982,00;97,05
1981,00;97,09
1980,00;97,17
1979,00;97,25
1978,00;97,30
1977,00;97,29
1976,00;97,22
1975,00;97,15
1974,00;97,13
1973,00;97,13
1972,00;97,13
1971,00;97,15
1970,00;97,20
1969,00;97,25
1968,00;97,29
1967,00;97,31
1966,00;97,33
1965,00;97,33
1964,00;97,34
1963,00;97,35
1962,00;97,36
1961,00;97,37
1960,00;97,35
1959,00;97,32
1958,00;97,31
1957,00;97,30
1956,00;97,29
1955,00;97,29
1954,00;97,31
1953,00;97,33
1952,00;97,34
1951,00;97,36
1950,00;97,37
1949,00;97,37
1948,00;97,36
1947,00;97,36
1946,00;97,38
1945,00;97,38
1944,00;97,36
1943,00;97,35
1942,00;97,36
1941,00;97,37
1940,00;97,35
1939,00;97,32
1938,00;97,30
1937,00;97,31
1936,00;97,32
1935,00;97,34
1934,00;97,36
1933,00;97,37
1932,00;97,38
1931,00;97,40
1930,00;97,42
1929,00;97,45
1928,00;97,47
1927,00;97,50
1926,00;97,51
1925,00;97,50
1924,00;97,48
1923,00;97,47
1922,00;97,47
1921,00;97,47
1920,00;97,46
1919,00;97,46
1918,00;97,49
1917,00;97,53
1916,00;97,55
1915,00;97,55
1914,00;97,55
1913,00;97,54
1912,00;97,50
1911,00;97,45
1910,00;97,43
1909,00;97,45
1908,00;97,49
1907,00;97,53
1906,00;97,55
1905,00;97,54
1904,00;97,51
1903,00;97,49
1902,00;97,48
1901,00;97,49
1900,00;97,51
1899,00;97,53
1898,00;97,54
1897,00;97,54
1896,00;97,52
1895,00;97,53
1894,00;97,55
1893,00;97,56
1892,00;97,55
1891,00;97,52
1890,00;97,50
1889,00;97,50
1888,00;97,49
1887,00;97,48
1886,00;97,47
1885,00;97,47
1884,00;97,46
1883,00;97,46
1882,00;97,47
1881,00;97,49
1880,00;97,50
1879,00;97,51
1878,00;97,51
1877,00;97,51
1876,00;97,50
1875,00;97,49
1874,00;97,49
1873,00;97,49
1872,00;97,49
1871,00;97,50
1870,00;97,51
1869,00;97,53
1868,00;97,53
1867,00;97,53
1866,00;97,52
1865,00;97,49
1864,00;97,47
1863,00;97,46
1862,00;97,48
1861,00;97,49
1860,00;97,50
1859,00;97,49
1858,00;97,49
1857,00;97,47
1856,00;97,45
1855,00;97,44
1854,00;97,45
1853,00;97,46
1852,00;97,46
1851,00;97,44
1850,00;97,43
1849,00;97,42
1848,00;97,41
1847,00;97,42
1846,00;97,44
1845,00;97,45
1844,00;97,45
1843,00;97,44
1842,00;97,44
1841,00;97,42
1840,00;97,39
1839,00;97,37
1838,00;97,38
1837,00;97,38
1836,00;97,37
1835,00;97,36
1834,00;97,34
1833,00;97,32
1832,00;97,30
1831,00;97,29
1830,00;97,31
1829,00;97,35
1828,00;97,35
1827,00;97,33
1826,00;97,30
1825,00;97,28
1824,00;97,27
1823,00;97,27
1822,00;97,27
1821,00;97,27
1820,00;97,25
1819,00;97,22
1818,00;97,21
1817,00;97,21
1816,00;97,20
1815,00;97,19
1814,00;97,18
1813,00;97,16
1812,00;97,14
1811,00;97,13
1810,00;97,14
1809,00;97,15
1808,00;97,14
1807,00;97,12
1806,00;97,11
1805,00;97,08
1804,00;97,05
1803,00;97,02
1802,00;97,02
1801,00;97,04
1800,00;97,05
1799,00;97,04
1798,00;97,01
1797,00;96,97
1796,00;96,93
1795,00;96,91
1794,00;96,90
1793,00;96,91
1792,00;96,93
1791,00;96,95
1790,00;96,95
1789,00;96,92
1788,00;96,86
1787,00;96,81
1786,00;96,79
1785,00;96,78
1784,00;96,76
1783,00;96,75
1782,00;96,75
1781,00;96,73
1780,00;96,70
1779,00;96,67
1778,00;96,65
1777,00;96,63
1776,00;96,62
1775,00;96,61
1774,00;96,61
1773,00;96,62
1772,00;96,62
1771,00;96,62
1770,00;96,61
1769,00;96,59
1768,00;96,56
1767,00;96,56
1766,00;96,57
1765,00;96,58
1764,00;96,56
1763,00;96,54
1762,00;96,53
1761,00;96,53
1760,00;96,51
1759,00;96,49
1758,00;96,47
1757,00;96,47
1756,00;96,47
1755,00;96,47
1754,00;96,46
1753,00;96,41
1752,00;96,35
1751,00;96,32
1750,00;96,33
1749,00;96,33
1748,00;96,30
1747,00;96,24
1746,00;96,19
1745,00;96,13
1744,00;96,08
1743,00;96,05
1742,00;96,04
1741,00;96,02
1740,00;95,94
1739,00;95,85
1738,00;95,79
1737,00;95,71
1736,00;95,58
1735,00;95,38
1734,00;95,15
1733,00;94,96
1732,00;94,82
1731,00;94,71
1730,00;94,61
1729,00;94,49
1728,00;94,36
1727,00;94,22
1726,00;94,09
1725,00;93,94
1724,00;93,77
1723,00;93,60
1722,00;93,47
1721,00;93,36
1720,00;93,21
1719,00;93,00
1718,00;92,73
1717,00;92,46
1716,00;92,20
1715,00;91,97
1714,00;91,78
1713,00;91,59
1712,00;91,37
1711,00;91,13
1710,00;90,92
1709,00;90,71
1708,00;90,50
1707,00;90,27
1706,00;90,00
1705,00;89,73
1704,00;89,51
1703,00;89,33
1702,00;89,14
1701,00;88,85
1700,00;88,42
1699,00;88,08
1698,00;87,86
1697,00;87,61
1696,00;87,23
1695,00;86,84
1694,00;86,58
1693,00;86,39
1692,00;86,17
1691,00;85,89
1690,00;85,58
1689,00;85,29
1688,00;85,02
1687,00;84,79
1686,00;84,57
1685,00;84,22
1684,00;83,68
1683,00;83,23
1682,00;82,95
1681,00;82,69
1680,00;82,39
1679,00;82,12
1678,00;81,89
1677,00;81,66
1676,00;81,31
1675,00;80,86
1674,00;80,49
1673,00;80,23
1672,00;79,99
1671,00;79,68
1670,00;79,28
1669,00;78,84
1668,00;78,44
1667,00;78,14
1666,00;77,92
1665,00;77,70
1664,00;77,39
1663,00;76,99
1662,00;76,60
1661,00;76,27
1660,00;75,99
1659,00;75,71
1658,00;75,49
1657,00;75,32
1656,00;75,18
1655,00;74,99
1654,00;74,60
1653,00;73,94
1652,00;73,44
1651,00;73,29
1650,00;73,28
1649,00;73,25
1648,00;73,06
1647,00;72,68
1646,00;72,32
1645,00;72,12
1644,00;71,98
1643,00;71,86
1642,00;71,76
1641,00;71,68
1640,00;71,62
1639,00;71,59
1638,00;71,59
1637,00;71,58
1636,00;71,51
1635,00;71,44
1634,00;71,47
1633,00;71,56
1632,00;71,66
1631,00;71,77
1630,00;71,91
1629,00;72,08
1628,00;72,26
1627,00;72,44
1626,00;72,65
1625,00;72,89
1624,00;73,16
1623,00;73,47
1622,00;73,79
1621,00;74,10
1620,00;74,36
1619,00;74,61
1618,00;74,91
1617,00;75,31
1616,00;75,77
1615,00;76,18
1614,00;76,54
1613,00;76,87
1612,00;77,21
1611,00;77,54
1610,00;77,90
1609,00;78,27
1608,00;78,65
1607,00;79,00
1606,00;79,34
1605,00;79,67
1604,00;80,01
1603,00;80,34
1602,00;80,67
1601,00;81,00
1600,00;81,31
1599,00;81,60
1598,00;81,87
1597,00;82,14
1596,00;82,42
1595,00;82,69
1594,00;82,97
1593,00;83,24
1592,00;83,50
1591,00;83,74
1590,00;83,97
1589,00;84,19
1588,00;84,40
1587,00;84,60
1586,00;84,79
1585,00;84,99
1584,00;85,20
1583,00;85,39
1582,00;85,56
1581,00;85,74
1580,00;85,91
1579,00;86,06
1578,00;86,19
1577,00;86,32
1576,00;86,50
1575,00;86,69
1574,00;86,86
1573,00;87,00
1572,00;87,11
1571,00;87,22
1570,00;87,35
1569,00;87,50
1568,00;87,63
1567,00;87,73
1566,00;87,82
1565,00;87,92
1564,00;88,04
1563,00;88,15
1562,00;88,23
1561,00;88,31
1560,00;88,44
1559,00;88,60
1558,00;88,75
1557,00;88,81
1556,00;88,83
1555,00;88,85
1554,00;88,89
1553,00;88,94
1552,00;89,01
1551,00;89,06
1550,00;89,12
1549,00;89,20
1548,00;89,27
1547,00;89,33
1546,00;89,36
1545,00;89,39
1544,00;89,46
1543,00;89,55
1542,00;89,62
1541,00;89,70
1540,00;89,82
1539,00;89,90
1538,00;89,91
1537,00;89,91
1536,00;89,94
1535,00;89,97
1534,00;90,01
1533,00;90,07
1532,00;90,13
1531,00;90,17
1530,00;90,19
1529,00;90,23
1528,00;90,27
1527,00;90,30
1526,00;90,32
1525,00;90,35
1524,00;90,38
1523,00;90,41
1522,00;90,42
1521,00;90,46
1520,00;90,54
1519,00;90,60
1518,00;90,62
1517,00;90,63
1516,00;90,65
1515,00;90,68
1514,00;90,69
1513,00;90,69
1512,00;90,71
1511,00;90,73
1510,00;90,75
1509,00;90,76
1508,00;90,76
1507,00;90,84
1506,00;90,93
1505,00;90,95
1504,00;90,93
1503,00;90,93
1502,00;90,93
1501,00;90,95
1500,00;91,00
1499,00;91,05
1498,00;91,09
1497,00;91,10
1496,00;91,12
1495,00;91,14
1494,00;91,16
1493,00;91,17
1492,00;91,18
1491,00;91,18
1490,00;91,19
1489,00;91,21
1488,00;91,25
1487,00;91,27
1486,00;91,28
1485,00;91,28
1484,00;91,30
1483,00;91,31
1482,00;91,32
1481,00;91,33
1480,00;91,35
1479,00;91,37
1478,00;91,39
1477,00;91,40
1476,00;91,42
1475,00;91,44
1474,00;91,44
1473,00;91,45
1472,00;91,49
1471,00;91,53
1470,00;91,54
1469,00;91,55
1468,00;91,56
1467,00;91,58
1466,00;91,60
1465,00;91,63
1464,00;91,65
1463,00;91,67
1462,00;91,67
1461,00;91,68
1460,00;91,69
1459,00;91,68
1458,00;91,66
1457,00;91,65
1456,00;91,69
1455,00;91,72
1454,00;91,73
1453,00;91,74
1452,00;91,75
1451,00;91,78
1450,00;91,80
1449,00;91,81
1448,00;91,81
1447,00;91,81
1446,00;91,82
1445,00;91,82
1444,00;91,83
1443,00;91,83
1442,00;91,83
1441,00;91,85
1440,00;91,87
1439,00;91,89
1438,00;91,91
1437,00;91,91
1436,00;91,91
1435,00;91,92
1434,00;91,92
1433,00;91,92
1432,00;91,93
1431,00;91,94
1430,00;91,95
1429,00;91,94
1428,00;91,94
1427,00;91,94
1426,00;91,94
1425,00;91,94
1424,00;91,94
1423,00;91,94
1422,00;91,93
1421,00;91,92
1420,00;91,92
1419,00;91,93
1418,00;91,94
1417,00;91,95
1416,00;91,95
1415,00;91,95
1414,00;91,95
1413,00;91,94
1412,00;91,93
1411,00;91,93
1410,00;91,92
1409,00;91,92
1408,00;91,92
1407,00;91,92
1406,00;91,92
1405,00;91,91
1404,00;91,91
1403,00;91,92
1402,00;91,92
1401,00;91,92
1400,00;91,92
1399,00;91,93
1398,00;91,93
1397,00;91,95
1396,00;91,96
1395,00;91,98
1394,00;91,99
1393,00;92,01
1392,00;92,02
1391,00;92,04
1390,00;92,06
1389,00;92,08
1388,00;92,10
1387,00;92,13
1386,00;92,18
1385,00;92,23
1384,00;92,27
1383,00;92,32
1382,00;92,35
1381,00;92,38
1380,00;92,40
1379,00;92,43
1378,00;92,46
1377,00;92,48
1376,00;92,50
1375,00;92,52
1374,00;92,55
1373,00;92,58
1372,00;92,59
1371,00;92,59
1370,00;92,58
1369,00;92,58
1368,00;92,60
1367,00;92,63
1366,00;92,66
1365,00;92,65
1364,00;92,60
1363,00;92,54
1362,00;92,50
1361,00;92,49
1360,00;92,49
1359,00;92,48
1358,00;92,47
1357,00;92,46
1356,00;92,46
1355,00;92,46
1354,00;92,46
1353,00;92,44
1352,00;92,42
1351,00;92,39
1350,00;92,36
1349,00;92,34
1348,00;92,32
1347,00;92,29
1346,00;92,26
1345,00;92,22
1344,00;92,19
1343,00;92,15
1342,00;92,10
1341,00;92,04
1340,00;91,98
1339,00;91,95
1338,00;91,94
1337,00;91,94
1336,00;91,94
1335,00;91,94
1334,00;91,94
1333,00;91,93
1332,00;91,92
1331,00;91,91
1330,00;91,90
1329,00;91,90
1328,00;91,90
1327,00;91,91
1326,00;91,92
1325,00;91,92
1324,00;91,91
1323,00;91,89
1322,00;91,86
1321,00;91,83
1320,00;91,81
1319,00;91,81
1318,00;91,82
1317,00;91,82
1316,00;91,82
1315,00;91,81
1314,00;91,80
1313,00;91,80
1312,00;91,81
1311,00;91,81
1310,00;91,81
1309,00;91,81
1308,00;91,81
1307,00;91,82
1306,00;91,83
1305,00;91,84
1304,00;91,85
1303,00;91,85
1302,00;91,84
1301,00;91,83
1300,00;91,81
1299,00;91,80
1298,00;91,79
1297,00;91,79
1296,00;91,79
1295,00;91,80
1294,00;91,80
1293,00;91,79
1292,00;91,79
1291,00;91,78
1290,00;91,78
1289,00;91,77
1288,00;91,77
1287,00;91,77
1286,00;91,77
1285,00;91,77
1284,00;91,76
1283,00;91,76
1282,00;91,76
1281,00;91,76
1280,00;91,76
1279,00;91,75
1278,00;91,75
1277,00;91,75
1276,00;91,75
1275,00;91,76
1274,00;91,77
1273,00;91,77
1272,00;91,76
1271,00;91,75
1270,00;91,74
1269,00;91,74
1268,00;91,75
1267,00;91,75
1266,00;91,74
1265,00;91,74
1264,00;91,73
1263,00;91,73
1262,00;91,73
1261,00;91,72
1260,00;91,72
1259,00;91,73
1258,00;91,74
1257,00;91,74
1256,00;91,73
1255,00;91,72
1254,00;91,72
1253,00;91,72
1252,00;91,73
1251,00;91,74
1250,00;91,75
1249,00;91,75
1248,00;91,75
1247,00;91,77
1246,00;91,79
1245,00;91,82
1244,00;91,84
1243,00;91,86
1242,00;91,88
1241,00;91,91
1240,00;91,94
1239,00;91,99
1238,00;92,03
1237,00;92,08
1236,00;92,14
1235,00;92,21
1234,00;92,27
1233,00;92,32
1232,00;92,36
1231,00;92,40
1230,00;92,42
1229,00;92,44
1228,00;92,44
1227,00;92,43
1226,00;92,38
1225,00;92,33
1224,00;92,29
1223,00;92,26
1222,00;92,27
1221,00;92,31
1220,00;92,41
1219,00;92,52
1218,00;92,60
1217,00;92,62
1216,00;92,58
1215,00;92,51
1214,00;92,44
1213,00;92,39
1212,00;92,35
1211,00;92,33
1210,00;92,33
1209,00;92,32
1208,00;92,34
1207,00;92,35
1206,00;92,37
1205,00;92,36
1204,00;92,34
1203,00;92,31
1202,00;92,28
1201,00;92,25
1200,00;92,23
1199,00;92,19
1198,00;92,14
1197,00;92,09
1196,00;92,03
1195,00;91,99
1194,00;91,97
1193,00;91,95
1192,00;91,93
1191,00;91,91
1190,00;91,88
1189,00;91,86
1188,00;91,84
1187,00;91,83
1186,00;91,81
1185,00;91,79
1184,00;91,79
1183,00;91,79
1182,00;91,80
1181,00;91,80
1180,00;91,79
1179,00;91,77
1178,00;91,75
1177,00;91,73
1176,00;91,73
1175,00;91,72
1174,00;91,70
1173,00;91,68
1172,00;91,67
1171,00;91,68
1170,00;91,69
1169,00;91,70
1168,00;91,70
1167,00;91,70
1166,00;91,69
1165,00;91,68
1164,00;91,68
1163,00;91,68
1162,00;91,69
1161,00;91,70
1160,00;91,69
1159,00;91,67
1158,00;91,65
1157,00;91,64
1156,00;91,64
1155,00;91,64
1154,00;91,64
1153,00;91,64
1152,00;91,63
1151,00;91,63
1150,00;91,64
1149,00;91,64
1148,00;91,64
1147,00;91,65
1146,00;91,66
1145,00;91,68
1144,00;91,71
1143,00;91,73
1142,00;91,73
1141,00;91,71
1140,00;91,68
1139,00;91,66
1138,00;91,66
1137,00;91,66
1136,00;91,65
1135,00;91,64
1134,00;91,62
1133,00;91,60
1132,00;91,59
1131,00;91,59
1130,00;91,59
1129,00;91,60
1128,00;91,61
1127,00;91,62
1126,00;91,63
1125,00;91,63
1124,00;91,65
1123,00;91,65
1122,00;91,65
1121,00;91,63
1120,00;91,63
1119,00;91,63
1118,00;91,63
1117,00;91,62
1116,00;91,60
1115,00;91,57
1114,00;91,56
1113,00;91,56
1112,00;91,56
1111,00;91,57
1110,00;91,58
1109,00;91,58
1108,00;91,58
1107,00;91,58
1106,00;91,57
1105,00;91,55
1104,00;91,51
1103,00;91,49
1102,00;91,49
1101,00;91,51
1100,00;91,54
1099,00;91,55
1098,00;91,54
1097,00;91,50
1096,00;91,47
1095,00;91,46
1094,00;91,46
1093,00;91,47
1092,00;91,48
1091,00;91,48
1090,00;91,46
1089,00;91,42
1088,00;91,40
1087,00;91,39
1086,00;91,40
1085,00;91,39
1084,00;91,38
1083,00;91,37
1082,00;91,36
1081,00;91,34
1080,00;91,29
1079,00;91,24
1078,00;91,20
1077,00;91,19
1076,00;91,22
1075,00;91,26
1074,00;91,27
1073,00;91,26
1072,00;91,23
1071,00;91,21
1070,00;91,21
1069,00;91,23
1068,00;91,26
1067,00;91,27
1066,00;91,27
1065,00;91,25
1064,00;91,21
1063,00;91,17
1062,00;91,13
1061,00;91,11
1060,00;91,10
1059,00;91,09
1058,00;91,06
1057,00;91,03
1056,00;90,99
1055,00;90,96
1054,00;90,95
1053,00;90,96
1052,00;90,97
1051,00;90,98
1050,00;90,98
1049,00;90,96
1048,00;90,92
1047,00;90,89
1046,00;90,87
1045,00;90,86
1044,00;90,86
1043,00;90,86
1042,00;90,83
1041,00;90,81
1040,00;90,80
1039,00;90,79
1038,00;90,79
1037,00;90,78
1036,00;90,77
1035,00;90,76
1034,00;90,74
1033,00;90,71
1032,00;90,68
1031,00;90,66
1030,00;90,65
1029,00;90,65
1028,00;90,64
1027,00;90,63
1026,00;90,62
1025,00;90,62
1024,00;90,61
1023,00;90,60
1022,00;90,58
1021,00;90,56
1020,00;90,53
1019,00;90,50
1018,00;90,46
1017,00;90,43
1016,00;90,40
1015,00;90,37
1014,00;90,34
1013,00;90,31
1012,00;90,28
1011,00;90,27
1010,00;90,26
1009,00;90,25
1008,00;90,23
1007,00;90,21
1006,00;90,19
1005,00;90,17
1004,00;90,15
1003,00;90,12
1002,00;90,09
1001,00;90,05
1000,00;90,02
999,00;89,99
998,00;89,95
997,00;89,91
996,00;89,87
995,00;89,84
994,00;89,81
993,00;89,78
992,00;89,74
991,00;89,70
990,00;89,66
989,00;89,62
988,00;89,57
987,00;89,52
986,00;89,48
985,00;89,44
984,00;89,40
983,00;89,35
982,00;89,30
981,00;89,26
980,00;89,21
979,00;89,16
978,00;89,10
977,00;89,04
976,00;89,00
975,00;88,97
974,00;88,95
973,00;88,91
972,00;88,87
971,00;88,83
970,00;88,80
969,00;88,75
968,00;88,69
967,00;88,63
966,00;88,57
965,00;88,50
964,00;88,44
963,00;88,38
962,00;88,32
961,00;88,25
960,00;88,16
959,00;88,08
958,00;88,03
957,00;87,99
956,00;87,96
955,00;87,92
954,00;87,86
953,00;87,79
952,00;87,70
951,00;87,62
950,00;87,55
949,00;87,48
948,00;87,42
947,00;87,35
946,00;87,29
945,00;87,23
944,00;87,16
943,00;87,07
942,00;86,97
941,00;86,86
940,00;86,76
939,00;86,65
938,00;86,55
937,00;86,44
936,00;86,34
935,00;86,25
934,00;86,19
933,00;86,13
932,00;86,08
931,00;86,00
930,00;85,90
929,00;85,78
928,00;85,66
927,00;85,55
926,00;85,45
925,00;85,36
924,00;85,26
923,00;85,15
922,00;85,04
921,00;84,93
920,00;84,81
919,00;84,69
918,00;84,58
917,00;84,46
916,00;84,34
915,00;84,23
914,00;84,13
913,00;84,03
912,00;83,91
911,00;83,79
910,00;83,66
909,00;83,53
908,00;83,40
907,00;83,29
906,00;83,20
905,00;83,09
904,00;82,95
903,00;82,78
902,00;82,62
901,00;82,47
900,00;82,33
899,00;82,21
898,00;82,09
897,00;81,97
896,00;81,84
895,00;81,70
894,00;81,55
893,00;81,40
892,00;81,25
891,00;81,08
890,00;80,92
889,00;80,75
888,00;80,59
887,00;80,45
886,00;80,33
885,00;80,20
884,00;80,06
883,00;79,91
882,00;79,75
881,00;79,60
880,00;79,45
879,00;79,30
878,00;79,15
877,00;79,00
876,00;78,85
875,00;78,70
874,00;78,54
873,00;78,36
872,00;78,17
871,00;77,97
870,00;77,78
869,00;77,60
868,00;77,42
867,00;77,26
866,00;77,10
865,00;76,91
864,00;76,71
863,00;76,52
862,00;76,34
861,00;76,18
860,00;76,02
859,00;75,87
858,00;75,73
857,00;75,56
856,00;75,37
855,00;75,18
854,00;75,01
853,00;74,83
852,00;74,65
851,00;74,46
850,00;74,28
849,00;74,08
848,00;73,87
847,00;73,68
846,00;73,49
845,00;73,31
844,00;73,13
843,00;72,96
842,00;72,80
841,00;72,62
840,00;72,43
839,00;72,26
838,00;72,12
837,00;71,97
836,00;71,79
835,00;71,58
834,00;71,39
833,00;71,22
832,00;71,06
831,00;70,89
830,00;70,71
829,00;70,51
828,00;70,28
827,00;70,09
826,00;69,93
825,00;69,76
824,00;69,54
823,00;69,32
822,00;69,13
821,00;68,95
820,00;68,77
819,00;68,60
818,00;68,45
817,00;68,29
816,00;68,10
815,00;67,91
814,00;67,72
813,00;67,55
812,00;67,36
811,00;67,19
810,00;67,03
809,00;66,85
808,00;66,64
807,00;66,43
806,00;66,23
805,00;66,02
804,00;65,82
803,00;65,65
802,00;65,52
801,00;65,40
800,00;65,26
799,00;65,11
798,00;64,92
797,00;64,69
796,00;64,43
795,00;64,20
794,00;64,03
793,00;63,87
792,00;63,71
791,00;63,54
790,00;63,37
789,00;63,17
788,00;62,95
787,00;62,77
786,00;62,63
785,00;62,51
784,00;62,34
783,00;62,15
782,00;61,97
781,00;61,78
780,00;61,58
779,00;61,40
778,00;61,23
777,00;61,07
776,00;60,88
775,00;60,71
774,00;60,55
773,00;60,36
772,00;60,13
771,00;59,90
770,00;59,72
769,00;59,56
768,00;59,40
767,00;59,24
766,00;59,07
765,00;58,88
764,00;58,68
763,00;58,49
762,00;58,32
761,00;58,14
760,00;57,93
759,00;57,74
758,00;57,58
757,00;57,42
756,00;57,26
755,00;57,11
754,00;56,97
753,00;56,81
752,00;56,62
751,00;56,45
750,00;56,29
749,00;56,12
748,00;55,93
747,00;55,75
746,00;55,59
745,00;55,39
744,00;55,16
743,00;54,94
742,00;54,77
741,00;54,63
740,00;54,48
739,00;54,33
738,00;54,19
737,00;54,02
736,00;53,82
735,00;53,63
734,00;53,48
733,00;53,33
732,00;53,17
731,00;53,03
730,00;52,90
729,00;52,75
728,00;52,58
727,00;52,40
726,00;52,24
725,00;52,08
724,00;51,88
723,00;51,69
722,00;51,52
721,00;51,35
720,00;51,16
719,00;50,98
718,00;50,83
717,00;50,67
716,00;50,48
715,00;50,32
714,00;50,21
713,00;50,09
712,00;49,94
711,00;49,79
710,00;49,68
709,00;49,56
708,00;49,39
707,00;49,21
706,00;49,05
705,00;48,90
704,00;48,73
703,00;48,58
702,00;48,45
701,00;48,30
700,00;48,13
699,00;47,97
698,00;47,84
697,00;47,66
696,00;47,43
695,00;47,22
694,00;47,08
693,00;46,99
692,00;46,89
691,00;46,80
690,00;46,68
689,00;46,49
688,00;46,24
687,00;46,03
686,00;45,92
685,00;45,83
684,00;45,71
683,00;45,59
682,00;45,50
681,00;45,37
680,00;45,19
679,00;45,04
678,00;44,94
677,00;44,81
676,00;44,63
675,00;44,47
674,00;44,40
673,00;44,33
672,00;44,22
671,00;44,08
670,00;43,92
669,00;43,63
668,00;43,23
667,00;43,08
666,00;43,18
665,00;43,24
664,00;43,16
663,00;43,03
662,00;42,95
661,00;42,89
660,00;42,76
659,00;42,61
658,00;42,47
657,00;42,33
656,00;42,14
655,00;42,00
654,00;41,95
653,00;41,89
652,00;41,76
651,00;41,65
650,00;41,59
649,00;41,46
648,00;41,24
647,00;41,08
646,00;41,05
645,00;41,03
644,00;40,95
643,00;40,91
642,00;40,97
641,00;40,91
640,00;40,64
639,00;40,36
638,00;40,24
637,00;40,13
636,00;39,94
635,00;39,82
634,00;39,87
633,00;39,90
632,00;39,78
631,00;39,69
630,00;39,75
629,00;39,79
628,00;39,66
627,00;39,53
626,00;39,50
625,00;39,37
624,00;38,97
623,00;38,55
622,00;38,36
621,00;38,24
620,00;38,11
619,00;38,23
618,00;38,68
617,00;38,97
616,00;38,84
615,00;38,62
614,00;38,51
613,00;38,13
612,00;37,42
611,00;36,98
610,00;37,14
609,00;37,40
608,00;37,35
607,00;37,22
606,00;37,25
605,00;37,19
604,00;36,96
603,00;36,97
602,00;37,31
601,00;37,44
600,00;37,07
