Created as New Dataset;Sample 009 By Administrator Date maandag, maart 02 2026
cm-1;%T
4000,00;98,12
3999,00;98,12
3998,00;98,12
3997,00;98,11
3996,00;98,10
3995,00;98,09
3994,00;98,08
3993,00;98,08
3992,00;98,08
3991,00;98,09
3990,00;98,11
3989,00;98,13
3988,00;98,14
3987,00;98,15
3986,00;98,16
3985,00;98,15
3984,00;98,15
3983,00;98,15
3982,00;98,14
3981,00;98,12
3980,00;98,09
3979,00;98,06
3978,00;98,04
3977,00;98,02
3976,00;98,01
3975,00;98,02
3974,00;98,04
3973,00;98,05
3972,00;98,06
3971,00;98,07
3970,00;98,07
3969,00;98,09
3968,00;98,10
3967,00;98,11
3966,00;98,11
3965,00;98,09
3964,00;98,07
3963,00;98,06
3962,00;98,06
3961,00;98,06
3960,00;98,06
3959,00;98,06
3958,00;98,05
3957,00;98,05
3956,00;98,06
3955,00;98,06
3954,00;98,08
3953,00;98,09
3952,00;98,10
3951,00;98,10
3950,00;98,07
3949,00;98,02
3948,00;97,99
3947,00;97,97
3946,00;97,99
3945,00;98,04
3944,00;98,12
3943,00;98,17
3942,00;98,18
3941,00;98,14
3940,00;98,09
3939,00;98,05
3938,00;98,05
3937,00;98,05
3936,00;98,05
3935,00;98,04
3934,00;98,01
3933,00;97,98
3932,00;97,96
3931,00;97,99
3930,00;98,03
3929,00;98,08
3928,00;98,12
3927,00;98,13
3926,00;98,13
3925,00;98,10
3924,00;98,05
3923,00;98,01
3922,00;97,98
3921,00;97,94
3920,00;97,90
3919,00;97,85
3918,00;97,82
3917,00;97,85
3916,00;97,92
3915,00;98,00
3914,00;98,07
3913,00;98,12
3912,00;98,14
3911,00;98,15
3910,00;98,15
3909,00;98,15
3908,00;98,13
3907,00;98,06
3906,00;97,93
3905,00;97,74
3904,00;97,56
3903,00;97,45
3902,00;97,44
3901,00;97,52
3900,00;97,65
3899,00;97,78
3898,00;97,85
3897,00;97,89
3896,00;97,88
3895,00;97,86
3894,00;97,83
3893,00;97,83
3892,00;97,84
3891,00;97,87
3890,00;97,86
3889,00;97,84
3888,00;97,83
3887,00;97,82
3886,00;97,83
3885,00;97,85
3884,00;97,88
3883,00;97,93
3882,00;98,01
3881,00;98,10
3880,00;98,14
3879,00;98,10
3878,00;98,04
3877,00;98,02
3876,00;98,06
3875,00;98,13
3874,00;98,16
3873,00;98,11
3872,00;98,01
3871,00;97,91
3870,00;97,85
3869,00;97,81
3868,00;97,75
3867,00;97,70
3866,00;97,67
3865,00;97,66
3864,00;97,69
3863,00;97,75
3862,00;97,79
3861,00;97,80
3860,00;97,81
3859,00;97,83
3858,00;97,88
3857,00;97,92
3856,00;97,91
3855,00;97,86
3854,00;97,82
3853,00;97,82
3852,00;97,85
3851,00;97,88
3850,00;97,88
3849,00;97,86
3848,00;97,85
3847,00;97,85
3846,00;97,89
3845,00;97,95
3844,00;98,00
3843,00;98,02
3842,00;98,01
3841,00;97,99
3840,00;97,96
3839,00;97,94
3838,00;97,93
3837,00;97,93
3836,00;97,91
3835,00;97,88
3834,00;97,86
3833,00;97,86
3832,00;97,84
3831,00;97,82
3830,00;97,81
3829,00;97,84
3828,00;97,89
3827,00;97,93
3826,00;97,94
3825,00;97,88
3824,00;97,81
3823,00;97,75
3822,00;97,74
3821,00;97,76
3820,00;97,77
3819,00;97,80
3818,00;97,87
3817,00;97,97
3816,00;98,08
3815,00;98,12
3814,00;98,11
3813,00;98,06
3812,00;98,03
3811,00;98,00
3810,00;97,98
3809,00;97,96
3808,00;97,94
3807,00;97,91
3806,00;97,88
3805,00;97,88
3804,00;97,93
3803,00;98,00
3802,00;98,07
3801,00;98,09
3800,00;98,04
3799,00;97,95
3798,00;97,90
3797,00;97,91
3796,00;97,95
3795,00;97,99
3794,00;98,01
3793,00;98,04
3792,00;98,08
3791,00;98,12
3790,00;98,14
3789,00;98,13
3788,00;98,12
3787,00;98,10
3786,00;98,10
3785,00;98,12
3784,00;98,14
3783,00;98,15
3782,00;98,16
3781,00;98,19
3780,00;98,22
3779,00;98,21
3778,00;98,16
3777,00;98,11
3776,00;98,07
3775,00;98,05
3774,00;98,03
3773,00;98,00
3772,00;97,96
3771,00;97,93
3770,00;97,91
3769,00;97,91
3768,00;97,93
3767,00;97,97
3766,00;97,99
3765,00;97,99
3764,00;97,97
3763,00;97,95
3762,00;97,94
3761,00;97,97
3760,00;97,99
3759,00;97,99
3758,00;97,95
3757,00;97,86
3756,00;97,77
3755,00;97,70
3754,00;97,65
3753,00;97,55
3752,00;97,34
3751,00;97,07
3750,00;96,90
3749,00;96,87
3748,00;96,91
3747,00;97,00
3746,00;97,15
3745,00;97,33
3744,00;97,46
3743,00;97,50
3742,00;97,50
3741,00;97,47
3740,00;97,43
3739,00;97,40
3738,00;97,39
3737,00;97,43
3736,00;97,48
3735,00;97,53
3734,00;97,54
3733,00;97,52
3732,00;97,51
3731,00;97,52
3730,00;97,54
3729,00;97,55
3728,00;97,55
3727,00;97,56
3726,00;97,59
3725,00;97,66
3724,00;97,74
3723,00;97,83
3722,00;97,91
3721,00;97,97
3720,00;98,02
3719,00;98,04
3718,00;98,05
3717,00;98,03
3716,00;98,00
3715,00;97,98
3714,00;97,95
3713,00;97,90
3712,00;97,82
3711,00;97,77
3710,00;97,78
3709,00;97,80
3708,00;97,81
3707,00;97,83
3706,00;97,88
3705,00;97,93
3704,00;98,01
3703,00;98,09
3702,00;98,14
3701,00;98,13
3700,00;98,09
3699,00;98,05
3698,00;98,03
3697,00;98,03
3696,00;98,03
3695,00;98,02
3694,00;98,01
3693,00;98,01
3692,00;98,02
3691,00;98,02
3690,00;98,03
3689,00;98,04
3688,00;98,03
3687,00;98,00
3686,00;97,96
3685,00;97,95
3684,00;97,94
3683,00;97,94
3682,00;97,94
3681,00;97,95
3680,00;97,98
3679,00;98,01
3678,00;98,03
3677,00;98,05
3676,00;98,08
3675,00;98,08
3674,00;97,98
3673,00;97,86
3672,00;97,78
3671,00;97,77
3670,00;97,84
3669,00;97,93
3668,00;97,96
3667,00;97,96
3666,00;97,96
3665,00;97,97
3664,00;97,99
3663,00;98,01
3662,00;98,03
3661,00;98,04
3660,00;98,03
3659,00;97,99
3658,00;97,93
3657,00;97,86
3656,00;97,81
3655,00;97,81
3654,00;97,84
3653,00;97,90
3652,00;97,96
3651,00;97,94
3650,00;97,79
3649,00;97,69
3648,00;97,79
3647,00;97,92
3646,00;97,94
3645,00;97,90
3644,00;97,88
3643,00;97,89
3642,00;97,92
3641,00;97,97
3640,00;98,01
3639,00;98,02
3638,00;98,01
3637,00;97,99
3636,00;97,99
3635,00;97,97
3634,00;97,92
3633,00;97,82
3632,00;97,67
3631,00;97,51
3630,00;97,39
3629,00;97,39
3628,00;97,48
3627,00;97,59
3626,00;97,67
3625,00;97,71
3624,00;97,73
3623,00;97,73
3622,00;97,73
3621,00;97,74
3620,00;97,78
3619,00;97,84
3618,00;97,87
3617,00;97,85
3616,00;97,78
3615,00;97,68
3614,00;97,59
3613,00;97,51
3612,00;97,43
3611,00;97,36
3610,00;97,35
3609,00;97,44
3608,00;97,62
3607,00;97,81
3606,00;97,93
3605,00;97,97
3604,00;97,97
3603,00;97,98
3602,00;97,98
3601,00;97,97
3600,00;97,95
3599,00;97,93
3598,00;97,92
3597,00;97,93
3596,00;97,96
3595,00;97,98
3594,00;97,98
3593,00;97,93
3592,00;97,85
3591,00;97,75
3590,00;97,67
3589,00;97,64
3588,00;97,66
3587,00;97,75
3586,00;97,83
3585,00;97,87
3584,00;97,88
3583,00;97,89
3582,00;97,90
3581,00;97,92
3580,00;97,93
3579,00;97,95
3578,00;97,96
3577,00;97,97
3576,00;97,98
3575,00;97,98
3574,00;97,98
3573,00;97,96
3572,00;97,93
3571,00;97,91
3570,00;97,92
3569,00;97,95
3568,00;97,97
3567,00;97,98
3566,00;97,99
3565,00;97,99
3564,00;97,96
3563,00;97,93
3562,00;97,93
3561,00;97,95
3560,00;97,99
3559,00;98,03
3558,00;98,04
3557,00;98,04
3556,00;98,01
3555,00;97,98
3554,00;97,96
3553,00;97,96
3552,00;97,98
3551,00;97,97
3550,00;97,94
3549,00;97,88
3548,00;97,83
3547,00;97,78
3546,00;97,75
3545,00;97,76
3544,00;97,81
3543,00;97,87
3542,00;97,91
3541,00;97,94
3540,00;97,94
3539,00;97,94
3538,00;97,93
3537,00;97,92
3536,00;97,93
3535,00;97,95
3534,00;97,97
3533,00;97,96
3532,00;97,94
3531,00;97,91
3530,00;97,88
3529,00;97,87
3528,00;97,83
3527,00;97,79
3526,00;97,74
3525,00;97,71
3524,00;97,74
3523,00;97,81
3522,00;97,90
3521,00;97,97
3520,00;98,00
3519,00;98,01
3518,00;98,01
3517,00;98,02
3516,00;98,04
3515,00;98,05
3514,00;98,05
3513,00;98,03
3512,00;98,00
3511,00;97,96
3510,00;97,94
3509,00;97,95
3508,00;97,97
3507,00;97,97
3506,00;97,96
3505,00;97,92
3504,00;97,88
3503,00;97,86
3502,00;97,87
3501,00;97,90
3500,00;97,94
3499,00;97,97
3498,00;97,99
3497,00;98,01
3496,00;98,03
3495,00;98,05
3494,00;98,07
3493,00;98,08
3492,00;98,06
3491,00;98,05
3490,00;98,04
3489,00;98,04
3488,00;98,05
3487,00;98,04
3486,00;98,03
3485,00;98,01
3484,00;98,01
3483,00;98,00
3482,00;98,01
3481,00;98,02
3480,00;98,03
3479,00;98,05
3478,00;98,06
3477,00;98,07
3476,00;98,08
3475,00;98,08
3474,00;98,07
3473,00;98,06
3472,00;98,06
3471,00;98,07
3470,00;98,08
3469,00;98,09
3468,00;98,10
3467,00;98,10
3466,00;98,09
3465,00;98,07
3464,00;98,06
3463,00;98,06
3462,00;98,06
3461,00;98,07
3460,00;98,07
3459,00;98,06
3458,00;98,06
3457,00;98,07
3456,00;98,07
3455,00;98,08
3454,00;98,08
3453,00;98,09
3452,00;98,09
3451,00;98,09
3450,00;98,08
3449,00;98,06
3448,00;98,03
3447,00;98,01
3446,00;98,00
3445,00;98,00
3444,00;98,00
3443,00;98,02
3442,00;98,04
3441,00;98,06
3440,00;98,09
3439,00;98,10
3438,00;98,11
3437,00;98,12
3436,00;98,12
3435,00;98,12
3434,00;98,11
3433,00;98,11
3432,00;98,11
3431,00;98,10
3430,00;98,10
3429,00;98,10
3428,00;98,10
3427,00;98,10
3426,00;98,09
3425,00;98,07
3424,00;98,04
3423,00;98,01
3422,00;97,99
3421,00;97,98
3420,00;97,99
3419,00;98,00
3418,00;98,02
3417,00;98,04
3416,00;98,05
3415,00;98,06
3414,00;98,07
3413,00;98,08
3412,00;98,08
3411,00;98,09
3410,00;98,09
3409,00;98,08
3408,00;98,06
3407,00;98,04
3406,00;98,01
3405,00;98,00
3404,00;97,99
3403,00;98,00
3402,00;98,01
3401,00;98,03
3400,00;98,03
3399,00;98,03
3398,00;98,03
3397,00;98,03
3396,00;98,02
3395,00;98,01
3394,00;98,00
3393,00;97,99
3392,00;98,00
3391,00;98,02
3390,00;98,04
3389,00;98,06
3388,00;98,07
3387,00;98,07
3386,00;98,05
3385,00;98,02
3384,00;98,00
3383,00;98,00
3382,00;98,02
3381,00;98,04
3380,00;98,05
3379,00;98,06
3378,00;98,06
3377,00;98,07
3376,00;98,08
3375,00;98,08
3374,00;98,09
3373,00;98,09
3372,00;98,10
3371,00;98,10
3370,00;98,10
3369,00;98,08
3368,00;98,07
3367,00;98,07
3366,00;98,08
3365,00;98,09
3364,00;98,10
3363,00;98,10
3362,00;98,10
3361,00;98,09
3360,00;98,08
3359,00;98,07
3358,00;98,06
3357,00;98,08
3356,00;98,11
3355,00;98,14
3354,00;98,17
3353,00;98,18
3352,00;98,17
3351,00;98,16
3350,00;98,15
3349,00;98,14
3348,00;98,14
3347,00;98,14
3346,00;98,13
3345,00;98,14
3344,00;98,15
3343,00;98,16
3342,00;98,15
3341,00;98,13
3340,00;98,11
3339,00;98,09
3338,00;98,08
3337,00;98,09
3336,00;98,12
3335,00;98,15
3334,00;98,18
3333,00;98,19
3332,00;98,18
3331,00;98,17
3330,00;98,16
3329,00;98,17
3328,00;98,18
3327,00;98,20
3326,00;98,21
3325,00;98,21
3324,00;98,20
3323,00;98,18
3322,00;98,17
3321,00;98,17
3320,00;98,18
3319,00;98,19
3318,00;98,20
3317,00;98,21
3316,00;98,21
3315,00;98,22
3314,00;98,23
3313,00;98,22
3312,00;98,20
3311,00;98,17
3310,00;98,16
3309,00;98,16
3308,00;98,18
3307,00;98,20
3306,00;98,21
3305,00;98,22
3304,00;98,21
3303,00;98,20
3302,00;98,20
3301,00;98,19
3300,00;98,19
3299,00;98,19
3298,00;98,19
3297,00;98,19
3296,00;98,19
3295,00;98,19
3294,00;98,19
3293,00;98,19
3292,00;98,19
3291,00;98,19
3290,00;98,17
3289,00;98,15
3288,00;98,13
3287,00;98,14
3286,00;98,16
3285,00;98,19
3284,00;98,21
3283,00;98,21
3282,00;98,21
3281,00;98,20
3280,00;98,19
3279,00;98,19
3278,00;98,18
3277,00;98,18
3276,00;98,19
3275,00;98,19
3274,00;98,21
3273,00;98,23
3272,00;98,25
3271,00;98,26
3270,00;98,25
3269,00;98,24
3268,00;98,22
3267,00;98,21
3266,00;98,21
3265,00;98,21
3264,00;98,22
3263,00;98,23
3262,00;98,23
3261,00;98,22
3260,00;98,22
3259,00;98,21
3258,00;98,20
3257,00;98,19
3256,00;98,19
3255,00;98,18
3254,00;98,18
3253,00;98,18
3252,00;98,19
3251,00;98,20
3250,00;98,20
3249,00;98,20
3248,00;98,20
3247,00;98,19
3246,00;98,19
3245,00;98,19
3244,00;98,19
3243,00;98,20
3242,00;98,20
3241,00;98,21
3240,00;98,21
3239,00;98,22
3238,00;98,21
3237,00;98,21
3236,00;98,20
3235,00;98,21
3234,00;98,21
3233,00;98,21
3232,00;98,20
3231,00;98,20
3230,00;98,21
3229,00;98,21
3228,00;98,22
3227,00;98,22
3226,00;98,22
3225,00;98,21
3224,00;98,20
3223,00;98,20
3222,00;98,20
3221,00;98,21
3220,00;98,23
3219,00;98,24
3218,00;98,24
3217,00;98,23
3216,00;98,22
3215,00;98,21
3214,00;98,20
3213,00;98,20
3212,00;98,21
3211,00;98,23
3210,00;98,27
3209,00;98,29
3208,00;98,30
3207,00;98,28
3206,00;98,27
3205,00;98,26
3204,00;98,26
3203,00;98,27
3202,00;98,28
3201,00;98,29
3200,00;98,30
3199,00;98,31
3198,00;98,32
3197,00;98,33
3196,00;98,32
3195,00;98,31
3194,00;98,28
3193,00;98,26
3192,00;98,25
3191,00;98,25
3190,00;98,25
3189,00;98,25
3188,00;98,25
3187,00;98,25
3186,00;98,24
3185,00;98,24
3184,00;98,24
3183,00;98,26
3182,00;98,28
3181,00;98,30
3180,00;98,30
3179,00;98,30
3178,00;98,29
3177,00;98,29
3176,00;98,29
3175,00;98,30
3174,00;98,32
3173,00;98,33
3172,00;98,34
3171,00;98,33
3170,00;98,32
3169,00;98,31
3168,00;98,32
3167,00;98,34
3166,00;98,35
3165,00;98,35
3164,00;98,33
3163,00;98,31
3162,00;98,29
3161,00;98,29
3160,00;98,29
3159,00;98,29
3158,00;98,30
3157,00;98,30
3156,00;98,32
3155,00;98,33
3154,00;98,34
3153,00;98,33
3152,00;98,32
3151,00;98,30
3150,00;98,30
3149,00;98,30
3148,00;98,31
3147,00;98,32
3146,00;98,33
3145,00;98,33
3144,00;98,33
3143,00;98,34
3142,00;98,35
3141,00;98,36
3140,00;98,37
3139,00;98,37
3138,00;98,37
3137,00;98,37
3136,00;98,37
3135,00;98,37
3134,00;98,37
3133,00;98,38
3132,00;98,39
3131,00;98,39
3130,00;98,38
3129,00;98,36
3128,00;98,34
3127,00;98,33
3126,00;98,34
3125,00;98,34
3124,00;98,35
3123,00;98,35
3122,00;98,35
3121,00;98,34
3120,00;98,33
3119,00;98,32
3118,00;98,31
3117,00;98,31
3116,00;98,31
3115,00;98,33
3114,00;98,34
3113,00;98,35
3112,00;98,35
3111,00;98,36
3110,00;98,36
3109,00;98,37
3108,00;98,37
3107,00;98,36
3106,00;98,36
3105,00;98,37
3104,00;98,37
3103,00;98,37
3102,00;98,38
3101,00;98,39
3100,00;98,40
3099,00;98,41
3098,00;98,42
3097,00;98,41
3096,00;98,42
3095,00;98,43
3094,00;98,44
3093,00;98,44
3092,00;98,44
3091,00;98,43
3090,00;98,42
3089,00;98,41
3088,00;98,41
3087,00;98,42
3086,00;98,43
3085,00;98,44
3084,00;98,43
3083,00;98,43
3082,00;98,42
3081,00;98,41
3080,00;98,40
3079,00;98,41
3078,00;98,42
3077,00;98,43
3076,00;98,44
3075,00;98,44
3074,00;98,45
3073,00;98,46
3072,00;98,47
3071,00;98,48
3070,00;98,49
3069,00;98,50
3068,00;98,50
3067,00;98,50
3066,00;98,48
3065,00;98,46
3064,00;98,45
3063,00;98,44
3062,00;98,45
3061,00;98,45
3060,00;98,45
3059,00;98,45
3058,00;98,45
3057,00;98,45
3056,00;98,46
3055,00;98,47
3054,00;98,49
3053,00;98,50
3052,00;98,51
3051,00;98,51
3050,00;98,51
3049,00;98,50
3048,00;98,50
3047,00;98,50
3046,00;98,50
3045,00;98,49
3044,00;98,50
3043,00;98,51
3042,00;98,52
3041,00;98,53
3040,00;98,53
3039,00;98,54
3038,00;98,54
3037,00;98,55
3036,00;98,55
3035,00;98,55
3034,00;98,54
3033,00;98,53
3032,00;98,52
3031,00;98,52
3030,00;98,54
3029,00;98,56
3028,00;98,58
3027,00;98,59
3026,00;98,60
3025,00;98,60
3024,00;98,60
3023,00;98,60
3022,00;98,60
3021,00;98,60
3020,00;98,61
3019,00;98,62
3018,00;98,63
3017,00;98,64
3016,00;98,64
3015,00;98,63
3014,00;98,62
3013,00;98,61
3012,00;98,61
3011,00;98,61
3010,00;98,62
3009,00;98,63
3008,00;98,63
3007,00;98,64
3006,00;98,63
3005,00;98,63
3004,00;98,63
3003,00;98,63
3002,00;98,63
3001,00;98,63
3000,00;98,62
2999,00;98,62
2998,00;98,61
2997,00;98,61
2996,00;98,60
2995,00;98,59
2994,00;98,59
2993,00;98,59
2992,00;98,60
2991,00;98,61
2990,00;98,63
2989,00;98,63
2988,00;98,63
2987,00;98,62
2986,00;98,62
2985,00;98,61
2984,00;98,61
2983,00;98,61
2982,00;98,61
2981,00;98,62
2980,00;98,63
2979,00;98,64
2978,00;98,65
2977,00;98,66
2976,00;98,67
2975,00;98,68
2974,00;98,70
2973,00;98,74
2972,00;98,78
2971,00;98,82
2970,00;98,82
2969,00;98,81
2968,00;98,78
2967,00;98,76
2966,00;98,74
2965,00;98,73
2964,00;98,71
2963,00;98,69
2962,00;98,68
2961,00;98,68
2960,00;98,69
2959,00;98,70
2958,00;98,72
2957,00;98,73
2956,00;98,73
2955,00;98,73
2954,00;98,73
2953,00;98,74
2952,00;98,74
2951,00;98,74
2950,00;98,74
2949,00;98,73
2948,00;98,73
2947,00;98,74
2946,00;98,75
2945,00;98,76
2944,00;98,76
2943,00;98,75
2942,00;98,75
2941,00;98,75
2940,00;98,76
2939,00;98,77
2938,00;98,77
2937,00;98,77
2936,00;98,76
2935,00;98,76
2934,00;98,77
2933,00;98,77
2932,00;98,78
2931,00;98,80
2930,00;98,81
2929,00;98,83
2928,00;98,86
2927,00;98,87
2926,00;98,88
2925,00;98,88
2924,00;98,88
2923,00;98,87
2922,00;98,86
2921,00;98,84
2920,00;98,82
2919,00;98,81
2918,00;98,81
2917,00;98,81
2916,00;98,80
2915,00;98,78
2914,00;98,76
2913,00;98,74
2912,00;98,73
2911,00;98,73
2910,00;98,73
2909,00;98,72
2908,00;98,71
2907,00;98,69
2906,00;98,68
2905,00;98,68
2904,00;98,69
2903,00;98,70
2902,00;98,70
2901,00;98,69
2900,00;98,68
2899,00;98,66
2898,00;98,65
2897,00;98,65
2896,00;98,65
2895,00;98,66
2894,00;98,67
2893,00;98,66
2892,00;98,65
2891,00;98,64
2890,00;98,63
2889,00;98,62
2888,00;98,61
2887,00;98,60
2886,00;98,59
2885,00;98,59
2884,00;98,59
2883,00;98,60
2882,00;98,61
2881,00;98,62
2880,00;98,62
2879,00;98,62
2878,00;98,61
2877,00;98,61
2876,00;98,61
2875,00;98,61
2874,00;98,60
2873,00;98,60
2872,00;98,60
2871,00;98,60
2870,00;98,60
2869,00;98,61
2868,00;98,61
2867,00;98,62
2866,00;98,63
2865,00;98,63
2864,00;98,63
2863,00;98,63
2862,00;98,64
2861,00;98,65
2860,00;98,66
2859,00;98,66
2858,00;98,66
2857,00;98,67
2856,00;98,67
2855,00;98,67
2854,00;98,68
2853,00;98,67
2852,00;98,67
2851,00;98,67
2850,00;98,68
2849,00;98,68
2848,00;98,68
2847,00;98,67
2846,00;98,66
2845,00;98,64
2844,00;98,63
2843,00;98,61
2842,00;98,60
2841,00;98,59
2840,00;98,59
2839,00;98,60
2838,00;98,60
2837,00;98,60
2836,00;98,59
2835,00;98,58
2834,00;98,57
2833,00;98,57
2832,00;98,57
2831,00;98,57
2830,00;98,57
2829,00;98,58
2828,00;98,58
2827,00;98,58
2826,00;98,57
2825,00;98,56
2824,00;98,55
2823,00;98,54
2822,00;98,55
2821,00;98,55
2820,00;98,56
2819,00;98,56
2818,00;98,57
2817,00;98,57
2816,00;98,57
2815,00;98,57
2814,00;98,57
2813,00;98,56
2812,00;98,56
2811,00;98,56
2810,00;98,56
2809,00;98,57
2808,00;98,57
2807,00;98,57
2806,00;98,57
2805,00;98,57
2804,00;98,56
2803,00;98,55
2802,00;98,53
2801,00;98,52
2800,00;98,52
2799,00;98,52
2798,00;98,52
2797,00;98,53
2796,00;98,53
2795,00;98,54
2794,00;98,54
2793,00;98,54
2792,00;98,55
2791,00;98,56
2790,00;98,56
2789,00;98,56
2788,00;98,55
2787,00;98,55
2786,00;98,55
2785,00;98,55
2784,00;98,55
2783,00;98,56
2782,00;98,55
2781,00;98,55
2780,00;98,54
2779,00;98,54
2778,00;98,54
2777,00;98,54
2776,00;98,54
2775,00;98,54
2774,00;98,54
2773,00;98,55
2772,00;98,55
2771,00;98,55
2770,00;98,55
2769,00;98,55
2768,00;98,56
2767,00;98,56
2766,00;98,55
2765,00;98,54
2764,00;98,53
2763,00;98,52
2762,00;98,51
2761,00;98,52
2760,00;98,53
2759,00;98,53
2758,00;98,54
2757,00;98,54
2756,00;98,54
2755,00;98,55
2754,00;98,56
2753,00;98,57
2752,00;98,57
2751,00;98,56
2750,00;98,55
2749,00;98,54
2748,00;98,54
2747,00;98,54
2746,00;98,55
2745,00;98,55
2744,00;98,54
2743,00;98,53
2742,00;98,52
2741,00;98,51
2740,00;98,51
2739,00;98,52
2738,00;98,52
2737,00;98,53
2736,00;98,53
2735,00;98,54
2734,00;98,55
2733,00;98,56
2732,00;98,56
2731,00;98,56
2730,00;98,56
2729,00;98,56
2728,00;98,55
2727,00;98,55
2726,00;98,54
2725,00;98,53
2724,00;98,53
2723,00;98,53
2722,00;98,53
2721,00;98,53
2720,00;98,53
2719,00;98,53
2718,00;98,54
2717,00;98,54
2716,00;98,54
2715,00;98,54
2714,00;98,54
2713,00;98,54
2712,00;98,55
2711,00;98,55
2710,00;98,55
2709,00;98,55
2708,00;98,54
2707,00;98,53
2706,00;98,53
2705,00;98,53
2704,00;98,53
2703,00;98,53
2702,00;98,53
2701,00;98,53
2700,00;98,54
2699,00;98,55
2698,00;98,55
2697,00;98,55
2696,00;98,55
2695,00;98,55
2694,00;98,56
2693,00;98,56
2692,00;98,56
2691,00;98,55
2690,00;98,54
2689,00;98,54
2688,00;98,54
2687,00;98,54
2686,00;98,54
2685,00;98,53
2684,00;98,53
2683,00;98,54
2682,00;98,54
2681,00;98,55
2680,00;98,56
2679,00;98,56
2678,00;98,56
2677,00;98,55
2676,00;98,54
2675,00;98,52
2674,00;98,50
2673,00;98,50
2672,00;98,50
2671,00;98,51
2670,00;98,52
2669,00;98,53
2668,00;98,53
2667,00;98,54
2666,00;98,55
2665,00;98,55
2664,00;98,56
2663,00;98,55
2662,00;98,55
2661,00;98,54
2660,00;98,53
2659,00;98,52
2658,00;98,52
2657,00;98,52
2656,00;98,53
2655,00;98,52
2654,00;98,52
2653,00;98,51
2652,00;98,50
2651,00;98,49
2650,00;98,49
2649,00;98,49
2648,00;98,50
2647,00;98,50
2646,00;98,50
2645,00;98,50
2644,00;98,50
2643,00;98,50
2642,00;98,49
2641,00;98,49
2640,00;98,50
2639,00;98,50
2638,00;98,50
2637,00;98,50
2636,00;98,50
2635,00;98,49
2634,00;98,48
2633,00;98,48
2632,00;98,48
2631,00;98,49
2630,00;98,49
2629,00;98,49
2628,00;98,49
2627,00;98,50
2626,00;98,50
2625,00;98,50
2624,00;98,51
2623,00;98,51
2622,00;98,52
2621,00;98,51
2620,00;98,50
2619,00;98,49
2618,00;98,49
2617,00;98,50
2616,00;98,51
2615,00;98,51
2614,00;98,51
2613,00;98,51
2612,00;98,51
2611,00;98,50
2610,00;98,49
2609,00;98,49
2608,00;98,48
2607,00;98,48
2606,00;98,48
2605,00;98,48
2604,00;98,49
2603,00;98,51
2602,00;98,53
2601,00;98,54
2600,00;98,54
2599,00;98,53
2598,00;98,52
2597,00;98,53
2596,00;98,53
2595,00;98,54
2594,00;98,54
2593,00;98,55
2592,00;98,54
2591,00;98,55
2590,00;98,55
2589,00;98,56
2588,00;98,56
2587,00;98,56
2586,00;98,56
2585,00;98,56
2584,00;98,56
2583,00;98,56
2582,00;98,55
2581,00;98,54
2580,00;98,53
2579,00;98,53
2578,00;98,54
2577,00;98,56
2576,00;98,58
2575,00;98,59
2574,00;98,60
2573,00;98,61
2572,00;98,62
2571,00;98,61
2570,00;98,59
2569,00;98,58
2568,00;98,57
2567,00;98,58
2566,00;98,59
2565,00;98,61
2564,00;98,62
2563,00;98,61
2562,00;98,59
2561,00;98,57
2560,00;98,56
2559,00;98,56
2558,00;98,58
2557,00;98,58
2556,00;98,58
2555,00;98,58
2554,00;98,58
2553,00;98,59
2552,00;98,61
2551,00;98,62
2550,00;98,62
2549,00;98,62
2548,00;98,61
2547,00;98,61
2546,00;98,61
2545,00;98,62
2544,00;98,64
2543,00;98,64
2542,00;98,64
2541,00;98,62
2540,00;98,60
2539,00;98,59
2538,00;98,59
2537,00;98,60
2536,00;98,61
2535,00;98,62
2534,00;98,62
2533,00;98,62
2532,00;98,62
2531,00;98,63
2530,00;98,63
2529,00;98,64
2528,00;98,64
2527,00;98,64
2526,00;98,63
2525,00;98,63
2524,00;98,62
2523,00;98,62
2522,00;98,62
2521,00;98,63
2520,00;98,62
2519,00;98,60
2518,00;98,58
2517,00;98,57
2516,00;98,58
2515,00;98,61
2514,00;98,63
2513,00;98,63
2512,00;98,63
2511,00;98,62
2510,00;98,62
2509,00;98,62
2508,00;98,63
2507,00;98,65
2506,00;98,67
2505,00;98,68
2504,00;98,67
2503,00;98,66
2502,00;98,65
2501,00;98,64
2500,00;98,63
2499,00;98,63
2498,00;98,63
2497,00;98,63
2496,00;98,64
2495,00;98,65
2494,00;98,66
2493,00;98,66
2492,00;98,65
2491,00;98,62
2490,00;98,59
2489,00;98,59
2488,00;98,62
2487,00;98,66
2486,00;98,69
2485,00;98,69
2484,00;98,69
2483,00;98,67
2482,00;98,66
2481,00;98,64
2480,00;98,64
2479,00;98,64
2478,00;98,65
2477,00;98,66
2476,00;98,66
2475,00;98,66
2474,00;98,67
2473,00;98,67
2472,00;98,69
2471,00;98,70
2470,00;98,70
2469,00;98,70
2468,00;98,69
2467,00;98,68
2466,00;98,69
2465,00;98,70
2464,00;98,70
2463,00;98,70
2462,00;98,69
2461,00;98,70
2460,00;98,72
2459,00;98,73
2458,00;98,74
2457,00;98,74
2456,00;98,73
2455,00;98,72
2454,00;98,72
2453,00;98,71
2452,00;98,72
2451,00;98,73
2450,00;98,74
2449,00;98,74
2448,00;98,74
2447,00;98,73
2446,00;98,72
2445,00;98,71
2444,00;98,70
2443,00;98,70
2442,00;98,71
2441,00;98,73
2440,00;98,73
2439,00;98,73
2438,00;98,72
2437,00;98,73
2436,00;98,74
2435,00;98,75
2434,00;98,76
2433,00;98,74
2432,00;98,72
2431,00;98,70
2430,00;98,71
2429,00;98,73
2428,00;98,74
2427,00;98,74
2426,00;98,73
2425,00;98,72
2424,00;98,71
2423,00;98,71
2422,00;98,71
2421,00;98,72
2420,00;98,74
2419,00;98,76
2418,00;98,76
2417,00;98,76
2416,00;98,75
2415,00;98,74
2414,00;98,74
2413,00;98,75
2412,00;98,75
2411,00;98,74
2410,00;98,73
2409,00;98,73
2408,00;98,73
2407,00;98,73
2406,00;98,74
2405,00;98,75
2404,00;98,76
2403,00;98,75
2402,00;98,74
2401,00;98,73
2400,00;98,73
2399,00;98,73
2398,00;98,75
2397,00;98,77
2396,00;98,80
2395,00;98,81
2394,00;98,82
2393,00;98,82
2392,00;98,82
2391,00;98,81
2390,00;98,80
2389,00;98,79
2388,00;98,79
2387,00;98,79
2386,00;98,78
2385,00;98,78
2384,00;98,78
2383,00;98,79
2382,00;98,81
2381,00;98,82
2380,00;98,82
2379,00;98,83
2378,00;98,83
2377,00;98,82
2376,00;98,82
2375,00;98,82
2374,00;98,83
2373,00;98,83
2372,00;98,83
2371,00;98,86
2370,00;98,90
2369,00;98,94
2368,00;98,93
2367,00;98,88
2366,00;98,81
2365,00;98,76
2364,00;98,75
2363,00;98,79
2362,00;98,84
2361,00;98,88
2360,00;98,89
2359,00;98,87
2358,00;98,83
2357,00;98,81
2356,00;98,82
2355,00;98,85
2354,00;98,86
2353,00;98,84
2352,00;98,82
2351,00;98,84
2350,00;98,86
2349,00;98,87
2348,00;98,83
2347,00;98,79
2346,00;98,77
2345,00;98,79
2344,00;98,83
2343,00;98,86
2342,00;98,87
2341,00;98,85
2340,00;98,81
2339,00;98,78
2338,00;98,77
2337,00;98,79
2336,00;98,82
2335,00;98,86
2334,00;98,89
2333,00;98,89
2332,00;98,86
2331,00;98,82
2330,00;98,79
2329,00;98,78
2328,00;98,78
2327,00;98,78
2326,00;98,76
2325,00;98,73
2324,00;98,68
2323,00;98,64
2322,00;98,62
2321,00;98,64
2320,00;98,69
2319,00;98,75
2318,00;98,79
2317,00;98,79
2316,00;98,77
2315,00;98,74
2314,00;98,73
2313,00;98,74
2312,00;98,75
2311,00;98,75
2310,00;98,76
2309,00;98,76
2308,00;98,76
2307,00;98,75
2306,00;98,74
2305,00;98,72
2304,00;98,71
2303,00;98,71
2302,00;98,73
2301,00;98,75
2300,00;98,76
2299,00;98,75
2298,00;98,74
2297,00;98,73
2296,00;98,72
2295,00;98,71
2294,00;98,71
2293,00;98,70
2292,00;98,69
2291,00;98,68
2290,00;98,66
2289,00;98,66
2288,00;98,66
2287,00;98,66
2286,00;98,66
2285,00;98,65
2284,00;98,64
2283,00;98,63
2282,00;98,64
2281,00;98,64
2280,00;98,65
2279,00;98,64
2278,00;98,62
2277,00;98,60
2276,00;98,60
2275,00;98,63
2274,00;98,67
2273,00;98,72
2272,00;98,75
2271,00;98,76
2270,00;98,74
2269,00;98,70
2268,00;98,68
2267,00;98,66
2266,00;98,66
2265,00;98,66
2264,00;98,66
2263,00;98,67
2262,00;98,68
2261,00;98,68
2260,00;98,65
2259,00;98,62
2258,00;98,58
2257,00;98,56
2256,00;98,58
2255,00;98,62
2254,00;98,67
2253,00;98,72
2252,00;98,73
2251,00;98,71
2250,00;98,68
2249,00;98,67
2248,00;98,67
2247,00;98,69
2246,00;98,69
2245,00;98,69
2244,00;98,70
2243,00;98,72
2242,00;98,73
2241,00;98,72
2240,00;98,70
2239,00;98,68
2238,00;98,68
2237,00;98,70
2236,00;98,73
2235,00;98,76
2234,00;98,76
2233,00;98,73
2232,00;98,69
2231,00;98,66
2230,00;98,65
2229,00;98,66
2228,00;98,67
2227,00;98,68
2226,00;98,69
2225,00;98,71
2224,00;98,71
2223,00;98,71
2222,00;98,69
2221,00;98,66
2220,00;98,65
2219,00;98,64
2218,00;98,66
2217,00;98,68
2216,00;98,71
2215,00;98,75
2214,00;98,78
2213,00;98,79
2212,00;98,78
2211,00;98,75
2210,00;98,70
2209,00;98,67
2208,00;98,64
2207,00;98,63
2206,00;98,64
2205,00;98,67
2204,00;98,72
2203,00;98,76
2202,00;98,78
2201,00;98,76
2200,00;98,74
2199,00;98,71
2198,00;98,69
2197,00;98,68
2196,00;98,69
2195,00;98,69
2194,00;98,67
2193,00;98,63
2192,00;98,61
2191,00;98,62
2190,00;98,65
2189,00;98,68
2188,00;98,70
2187,00;98,68
2186,00;98,64
2185,00;98,60
2184,00;98,58
2183,00;98,59
2182,00;98,63
2181,00;98,68
2180,00;98,70
2179,00;98,69
2178,00;98,64
2177,00;98,63
2176,00;98,67
2175,00;98,74
2174,00;98,78
2173,00;98,77
2172,00;98,74
2171,00;98,72
2170,00;98,70
2169,00;98,65
2168,00;98,57
2167,00;98,49
2166,00;98,45
2165,00;98,46
2164,00;98,53
2163,00;98,60
2162,00;98,64
2161,00;98,62
2160,00;98,61
2159,00;98,65
2158,00;98,72
2157,00;98,78
2156,00;98,81
2155,00;98,86
2154,00;98,91
2153,00;98,96
2152,00;98,99
2151,00;98,98
2150,00;98,95
2149,00;98,93
2148,00;98,94
2147,00;98,94
2146,00;98,93
2145,00;98,89
2144,00;98,85
2143,00;98,82
2142,00;98,80
2141,00;98,77
2140,00;98,75
2139,00;98,74
2138,00;98,74
2137,00;98,76
2136,00;98,79
2135,00;98,82
2134,00;98,84
2133,00;98,84
2132,00;98,85
2131,00;98,85
2130,00;98,84
2129,00;98,80
2128,00;98,74
2127,00;98,70
2126,00;98,67
2125,00;98,68
2124,00;98,70
2123,00;98,73
2122,00;98,76
2121,00;98,76
2120,00;98,75
2119,00;98,72
2118,00;98,69
2117,00;98,67
2116,00;98,66
2115,00;98,66
2114,00;98,67
2113,00;98,68
2112,00;98,68
2111,00;98,69
2110,00;98,69
2109,00;98,68
2108,00;98,66
2107,00;98,65
2106,00;98,66
2105,00;98,67
2104,00;98,68
2103,00;98,68
2102,00;98,68
2101,00;98,67
2100,00;98,66
2099,00;98,65
2098,00;98,64
2097,00;98,65
2096,00;98,66
2095,00;98,68
2094,00;98,70
2093,00;98,68
2092,00;98,66
2091,00;98,63
2090,00;98,61
2089,00;98,60
2088,00;98,62
2087,00;98,65
2086,00;98,67
2085,00;98,67
2084,00;98,65
2083,00;98,63
2082,00;98,62
2081,00;98,62
2080,00;98,62
2079,00;98,63
2078,00;98,64
2077,00;98,65
2076,00;98,66
2075,00;98,67
2074,00;98,67
2073,00;98,68
2072,00;98,68
2071,00;98,67
2070,00;98,67
2069,00;98,66
2068,00;98,66
2067,00;98,67
2066,00;98,68
2065,00;98,69
2064,00;98,68
2063,00;98,66
2062,00;98,63
2061,00;98,63
2060,00;98,66
2059,00;98,69
2058,00;98,69
2057,00;98,67
2056,00;98,64
2055,00;98,62
2054,00;98,62
2053,00;98,61
2052,00;98,59
2051,00;98,59
2050,00;98,60
2049,00;98,63
2048,00;98,67
2047,00;98,69
2046,00;98,67
2045,00;98,62
2044,00;98,57
2043,00;98,56
2042,00;98,58
2041,00;98,60
2040,00;98,59
2039,00;98,56
2038,00;98,52
2037,00;98,49
2036,00;98,48
2035,00;98,52
2034,00;98,57
2033,00;98,61
2032,00;98,64
2031,00;98,67
2030,00;98,73
2029,00;98,79
2028,00;98,84
2027,00;98,84
2026,00;98,80
2025,00;98,74
2024,00;98,70
2023,00;98,67
2022,00;98,65
2021,00;98,63
2020,00;98,61
2019,00;98,60
2018,00;98,60
2017,00;98,62
2016,00;98,64
2015,00;98,67
2014,00;98,68
2013,00;98,68
2012,00;98,66
2011,00;98,65
2010,00;98,66
2009,00;98,69
2008,00;98,75
2007,00;98,81
2006,00;98,84
2005,00;98,84
2004,00;98,82
2003,00;98,79
2002,00;98,76
2001,00;98,74
2000,00;98,72
1999,00;98,69
1998,00;98,65
1997,00;98,61
1996,00;98,58
1995,00;98,57
1994,00;98,57
1993,00;98,58
1992,00;98,61
1991,00;98,67
1990,00;98,73
1989,00;98,77
1988,00;98,79
1987,00;98,78
1986,00;98,76
1985,00;98,73
1984,00;98,69
1983,00;98,65
1982,00;98,64
1981,00;98,66
1980,00;98,73
1979,00;98,82
1978,00;98,91
1977,00;98,96
1976,00;98,97
1975,00;98,95
1974,00;98,91
1973,00;98,86
1972,00;98,79
1971,00;98,72
1970,00;98,68
1969,00;98,65
1968,00;98,65
1967,00;98,66
1966,00;98,69
1965,00;98,73
1964,00;98,77
1963,00;98,82
1962,00;98,85
1961,00;98,83
1960,00;98,80
1959,00;98,78
1958,00;98,77
1957,00;98,75
1956,00;98,73
1955,00;98,73
1954,00;98,74
1953,00;98,76
1952,00;98,79
1951,00;98,81
1950,00;98,82
1949,00;98,78
1948,00;98,74
1947,00;98,72
1946,00;98,73
1945,00;98,74
1944,00;98,74
1943,00;98,74
1942,00;98,75
1941,00;98,76
1940,00;98,75
1939,00;98,75
1938,00;98,75
1937,00;98,77
1936,00;98,77
1935,00;98,76
1934,00;98,74
1933,00;98,71
1932,00;98,68
1931,00;98,66
1930,00;98,66
1929,00;98,67
1928,00;98,69
1927,00;98,70
1926,00;98,72
1925,00;98,75
1924,00;98,78
1923,00;98,78
1922,00;98,74
1921,00;98,67
1920,00;98,61
1919,00;98,57
1918,00;98,58
1917,00;98,62
1916,00;98,67
1915,00;98,72
1914,00;98,74
1913,00;98,75
1912,00;98,74
1911,00;98,70
1910,00;98,67
1909,00;98,65
1908,00;98,67
1907,00;98,69
1906,00;98,71
1905,00;98,70
1904,00;98,69
1903,00;98,67
1902,00;98,67
1901,00;98,70
1900,00;98,74
1899,00;98,76
1898,00;98,77
1897,00;98,77
1896,00;98,75
1895,00;98,72
1894,00;98,69
1893,00;98,68
1892,00;98,70
1891,00;98,75
1890,00;98,79
1889,00;98,80
1888,00;98,77
1887,00;98,70
1886,00;98,65
1885,00;98,64
1884,00;98,66
1883,00;98,68
1882,00;98,68
1881,00;98,69
1880,00;98,70
1879,00;98,71
1878,00;98,72
1877,00;98,71
1876,00;98,68
1875,00;98,65
1874,00;98,62
1873,00;98,61
1872,00;98,61
1871,00;98,61
1870,00;98,59
1869,00;98,56
1868,00;98,57
1867,00;98,61
1866,00;98,63
1865,00;98,63
1864,00;98,64
1863,00;98,64
1862,00;98,64
1861,00;98,64
1860,00;98,65
1859,00;98,65
1858,00;98,64
1857,00;98,66
1856,00;98,69
1855,00;98,71
1854,00;98,71
1853,00;98,71
1852,00;98,71
1851,00;98,71
1850,00;98,69
1849,00;98,67
1848,00;98,63
1847,00;98,55
1846,00;98,44
1845,00;98,34
1844,00;98,32
1843,00;98,39
1842,00;98,48
1841,00;98,55
1840,00;98,59
1839,00;98,62
1838,00;98,63
1837,00;98,63
1836,00;98,63
1835,00;98,63
1834,00;98,63
1833,00;98,66
1832,00;98,70
1831,00;98,73
1830,00;98,75
1829,00;98,76
1828,00;98,78
1827,00;98,80
1826,00;98,81
1825,00;98,79
1824,00;98,74
1823,00;98,69
1822,00;98,65
1821,00;98,66
1820,00;98,69
1819,00;98,73
1818,00;98,74
1817,00;98,75
1816,00;98,76
1815,00;98,76
1814,00;98,74
1813,00;98,72
1812,00;98,72
1811,00;98,72
1810,00;98,72
1809,00;98,70
1808,00;98,70
1807,00;98,71
1806,00;98,72
1805,00;98,72
1804,00;98,75
1803,00;98,77
1802,00;98,77
1801,00;98,75
1800,00;98,74
1799,00;98,71
1798,00;98,62
1797,00;98,54
1796,00;98,50
1795,00;98,47
1794,00;98,44
1793,00;98,42
1792,00;98,48
1791,00;98,59
1790,00;98,68
1789,00;98,70
1788,00;98,70
1787,00;98,71
1786,00;98,72
1785,00;98,73
1784,00;98,75
1783,00;98,81
1782,00;98,86
1781,00;98,87
1780,00;98,84
1779,00;98,80
1778,00;98,79
1777,00;98,81
1776,00;98,85
1775,00;98,86
1774,00;98,83
1773,00;98,77
1772,00;98,77
1771,00;98,87
1770,00;98,96
1769,00;98,99
1768,00;99,02
1767,00;99,07
1766,00;99,13
1765,00;99,18
1764,00;99,21
1763,00;99,24
1762,00;99,26
1761,00;99,28
1760,00;99,31
1759,00;99,37
1758,00;99,43
1757,00;99,48
1756,00;99,51
1755,00;99,55
1754,00;99,59
1753,00;99,63
1752,00;99,66
1751,00;99,68
1750,00;99,69
1749,00;99,66
1748,00;99,63
1747,00;99,65
1746,00;99,71
1745,00;99,81
1744,00;99,92
1743,00;100,03
1742,00;100,07
1741,00;100,03
1740,00;99,95
1739,00;99,92
1738,00;99,92
1737,00;99,89
1736,00;99,79
1735,00;99,62
1734,00;99,46
1733,00;99,48
1732,00;99,61
1731,00;99,74
1730,00;99,84
1729,00;99,88
1728,00;99,84
1727,00;99,78
1726,00;99,75
1725,00;99,73
1724,00;99,67
1723,00;99,61
1722,00;99,59
1721,00;99,64
1720,00;99,75
1719,00;99,80
1718,00;99,53
1717,00;99,07
1716,00;98,85
1715,00;98,87
1714,00;98,95
1713,00;98,99
1712,00;98,98
1711,00;98,95
1710,00;98,93
1709,00;98,92
1708,00;98,93
1707,00;98,90
1706,00;98,83
1705,00;98,74
1704,00;98,67
1703,00;98,57
1702,00;98,42
1701,00;98,26
1700,00;98,10
1699,00;97,98
1698,00;97,99
1697,00;98,12
1696,00;98,34
1695,00;98,44
1694,00;98,38
1693,00;98,34
1692,00;98,35
1691,00;98,39
1690,00;98,40
1689,00;98,36
1688,00;98,37
1687,00;98,47
1686,00;98,69
1685,00;98,93
1684,00;98,99
1683,00;98,79
1682,00;98,50
1681,00;98,34
1680,00;98,33
1679,00;98,34
1678,00;98,33
1677,00;98,27
1676,00;98,20
1675,00;98,15
1674,00;98,16
1673,00;98,22
1672,00;98,28
1671,00;98,28
1670,00;98,27
1669,00;98,34
1668,00;98,43
1667,00;98,46
1666,00;98,44
1665,00;98,41
1664,00;98,35
1663,00;98,28
1662,00;98,24
1661,00;98,26
1660,00;98,27
1659,00;98,28
1658,00;98,30
1657,00;98,38
1656,00;98,55
1655,00;98,82
1654,00;99,04
1653,00;99,00
1652,00;98,68
1651,00;98,44
1650,00;98,36
1649,00;98,36
1648,00;98,29
1647,00;98,15
1646,00;98,15
1645,00;98,18
1644,00;98,17
1643,00;98,16
1642,00;98,14
1641,00;98,15
1640,00;98,19
1639,00;98,25
1638,00;98,30
1637,00;98,31
1636,00;98,36
1635,00;98,44
1634,00;98,41
1633,00;98,35
1632,00;98,33
1631,00;98,34
1630,00;98,38
1629,00;98,42
1628,00;98,43
1627,00;98,40
1626,00;98,35
1625,00;98,29
1624,00;98,22
1623,00;98,18
1622,00;98,21
1621,00;98,26
1620,00;98,30
1619,00;98,32
1618,00;98,32
1617,00;98,30
1616,00;98,31
1615,00;98,34
1614,00;98,35
1613,00;98,36
1612,00;98,36
1611,00;98,35
1610,00;98,34
1609,00;98,34
1608,00;98,34
1607,00;98,34
1606,00;98,36
1605,00;98,37
1604,00;98,38
1603,00;98,37
1602,00;98,40
1601,00;98,45
1600,00;98,49
1599,00;98,51
1598,00;98,51
1597,00;98,50
1596,00;98,49
1595,00;98,47
1594,00;98,47
1593,00;98,49
1592,00;98,51
1591,00;98,51
1590,00;98,52
1589,00;98,55
1588,00;98,57
1587,00;98,57
1586,00;98,57
1585,00;98,57
1584,00;98,57
1583,00;98,56
1582,00;98,56
1581,00;98,57
1580,00;98,61
1579,00;98,64
1578,00;98,64
1577,00;98,58
1576,00;98,50
1575,00;98,48
1574,00;98,49
1573,00;98,50
1572,00;98,53
1571,00;98,55
1570,00;98,54
1569,00;98,52
1568,00;98,50
1567,00;98,47
1566,00;98,45
1565,00;98,45
1564,00;98,45
1563,00;98,50
1562,00;98,68
1561,00;99,09
1560,00;99,63
1559,00;99,48
1558,00;98,94
1557,00;98,41
1556,00;98,09
1555,00;98,00
1554,00;98,05
1553,00;98,18
1552,00;98,34
1551,00;98,49
1550,00;98,56
1549,00;98,53
1548,00;98,43
1547,00;98,34
1546,00;98,26
1545,00;98,09
1544,00;97,80
1543,00;97,50
1542,00;97,30
1541,00;97,32
1540,00;97,94
1539,00;98,61
1538,00;98,62
1537,00;98,41
1536,00;98,29
1535,00;98,29
1534,00;98,36
1533,00;98,46
1532,00;98,54
1531,00;98,53
1530,00;98,50
1529,00;98,48
1528,00;98,45
1527,00;98,33
1526,00;98,15
1525,00;98,02
1524,00;97,98
1523,00;97,96
1522,00;97,95
1521,00;98,11
1520,00;98,38
1519,00;98,57
1518,00;98,65
1517,00;98,65
1516,00;98,61
1515,00;98,51
1514,00;98,38
1513,00;98,29
1512,00;98,29
1511,00;98,40
1510,00;98,57
1509,00;98,70
1508,00;98,65
1507,00;98,74
1506,00;98,99
1505,00;98,72
1504,00;98,44
1503,00;98,33
1502,00;98,30
1501,00;98,31
1500,00;98,34
1499,00;98,35
1498,00;98,32
1497,00;98,27
1496,00;98,32
1495,00;98,41
1494,00;98,46
1493,00;98,49
1492,00;98,54
1491,00;98,56
1490,00;98,51
1489,00;98,52
1488,00;98,63
1487,00;98,68
1486,00;98,67
1485,00;98,64
1484,00;98,63
1483,00;98,65
1482,00;98,66
1481,00;98,66
1480,00;98,67
1479,00;98,72
1478,00;98,80
1477,00;98,87
1476,00;98,85
1475,00;98,68
1474,00;98,40
1473,00;98,21
1472,00;98,33
1471,00;98,53
1470,00;98,58
1469,00;98,58
1468,00;98,59
1467,00;98,61
1466,00;98,59
1465,00;98,55
1464,00;98,54
1463,00;98,58
1462,00;98,65
1461,00;98,74
1460,00;98,84
1459,00;98,79
1458,00;98,42
1457,00;98,08
1456,00;98,19
1455,00;98,44
1454,00;98,60
1453,00;98,68
1452,00;98,72
1451,00;98,77
1450,00;98,82
1449,00;98,84
1448,00;98,86
1447,00;98,87
1446,00;98,86
1445,00;98,85
1444,00;98,85
1443,00;98,87
1442,00;98,87
1441,00;98,86
1440,00;98,85
1439,00;98,81
1438,00;98,73
1437,00;98,63
1436,00;98,57
1435,00;98,62
1434,00;98,69
1433,00;98,74
1432,00;98,80
1431,00;98,86
1430,00;98,90
1429,00;98,88
1428,00;98,86
1427,00;98,88
1426,00;98,95
1425,00;98,99
1424,00;98,97
1423,00;98,91
1422,00;98,87
1421,00;98,86
1420,00;98,89
1419,00;98,92
1418,00;98,92
1417,00;98,90
1416,00;98,86
1415,00;98,84
1414,00;98,84
1413,00;98,82
1412,00;98,80
1411,00;98,79
1410,00;98,81
1409,00;98,83
1408,00;98,85
1407,00;98,89
1406,00;98,91
1405,00;98,89
1404,00;98,84
1403,00;98,82
1402,00;98,83
1401,00;98,84
1400,00;98,83
1399,00;98,79
1398,00;98,76
1397,00;98,74
1396,00;98,71
1395,00;98,74
1394,00;98,79
1393,00;98,82
1392,00;98,83
1391,00;98,86
1390,00;98,90
1389,00;98,92
1388,00;98,92
1387,00;98,94
1386,00;99,03
1385,00;99,13
1384,00;99,21
1383,00;99,28
1382,00;99,33
1381,00;99,37
1380,00;99,40
1379,00;99,42
1378,00;99,46
1377,00;99,52
1376,00;99,58
1375,00;99,63
1374,00;99,66
1373,00;99,67
1372,00;99,63
1371,00;99,59
1370,00;99,58
1369,00;99,61
1368,00;99,64
1367,00;99,68
1366,00;99,74
1365,00;99,81
1364,00;99,83
1363,00;99,77
1362,00;99,67
1361,00;99,60
1360,00;99,52
1359,00;99,45
1358,00;99,41
1357,00;99,39
1356,00;99,39
1355,00;99,40
1354,00;99,41
1353,00;99,42
1352,00;99,41
1351,00;99,38
1350,00;99,33
1349,00;99,30
1348,00;99,27
1347,00;99,24
1346,00;99,20
1345,00;99,15
1344,00;99,11
1343,00;99,09
1342,00;99,07
1341,00;99,01
1340,00;98,93
1339,00;98,87
1338,00;98,88
1337,00;98,90
1336,00;98,89
1335,00;98,87
1334,00;98,85
1333,00;98,83
1332,00;98,82
1331,00;98,79
1330,00;98,76
1329,00;98,74
1328,00;98,74
1327,00;98,74
1326,00;98,75
1325,00;98,75
1324,00;98,74
1323,00;98,71
1322,00;98,68
1321,00;98,64
1320,00;98,60
1319,00;98,58
1318,00;98,59
1317,00;98,61
1316,00;98,62
1315,00;98,61
1314,00;98,59
1313,00;98,59
1312,00;98,61
1311,00;98,64
1310,00;98,65
1309,00;98,66
1308,00;98,66
1307,00;98,66
1306,00;98,68
1305,00;98,69
1304,00;98,70
1303,00;98,70
1302,00;98,70
1301,00;98,69
1300,00;98,68
1299,00;98,66
1298,00;98,64
1297,00;98,63
1296,00;98,63
1295,00;98,64
1294,00;98,64
1293,00;98,64
1292,00;98,64
1291,00;98,63
1290,00;98,63
1289,00;98,64
1288,00;98,64
1287,00;98,64
1286,00;98,65
1285,00;98,65
1284,00;98,65
1283,00;98,64
1282,00;98,63
1281,00;98,63
1280,00;98,63
1279,00;98,64
1278,00;98,65
1277,00;98,66
1276,00;98,66
1275,00;98,66
1274,00;98,65
1273,00;98,64
1272,00;98,63
1271,00;98,61
1270,00;98,61
1269,00;98,61
1268,00;98,62
1267,00;98,62
1266,00;98,62
1265,00;98,62
1264,00;98,62
1263,00;98,62
1262,00;98,61
1261,00;98,60
1260,00;98,60
1259,00;98,60
1258,00;98,62
1257,00;98,63
1256,00;98,64
1255,00;98,64
1254,00;98,64
1253,00;98,65
1252,00;98,66
1251,00;98,66
1250,00;98,66
1249,00;98,66
1248,00;98,66
1247,00;98,67
1246,00;98,69
1245,00;98,71
1244,00;98,74
1243,00;98,77
1242,00;98,81
1241,00;98,86
1240,00;98,91
1239,00;98,97
1238,00;99,02
1237,00;99,09
1236,00;99,16
1235,00;99,24
1234,00;99,31
1233,00;99,38
1232,00;99,42
1231,00;99,46
1230,00;99,48
1229,00;99,49
1228,00;99,48
1227,00;99,44
1226,00;99,40
1225,00;99,35
1224,00;99,31
1223,00;99,28
1222,00;99,28
1221,00;99,34
1220,00;99,44
1219,00;99,56
1218,00;99,66
1217,00;99,69
1216,00;99,65
1215,00;99,57
1214,00;99,48
1213,00;99,41
1212,00;99,36
1211,00;99,33
1210,00;99,34
1209,00;99,35
1208,00;99,36
1207,00;99,37
1206,00;99,38
1205,00;99,37
1204,00;99,35
1203,00;99,32
1202,00;99,29
1201,00;99,26
1200,00;99,21
1199,00;99,16
1198,00;99,11
1197,00;99,05
1196,00;98,99
1195,00;98,95
1194,00;98,92
1193,00;98,89
1192,00;98,85
1191,00;98,81
1190,00;98,76
1189,00;98,72
1188,00;98,68
1187,00;98,66
1186,00;98,65
1185,00;98,64
1184,00;98,63
1183,00;98,63
1182,00;98,63
1181,00;98,63
1180,00;98,62
1179,00;98,60
1178,00;98,58
1177,00;98,56
1176,00;98,53
1175,00;98,52
1174,00;98,51
1173,00;98,51
1172,00;98,51
1171,00;98,52
1170,00;98,52
1169,00;98,54
1168,00;98,55
1167,00;98,55
1166,00;98,56
1165,00;98,56
1164,00;98,56
1163,00;98,55
1162,00;98,55
1161,00;98,54
1160,00;98,54
1159,00;98,54
1158,00;98,53
1157,00;98,52
1156,00;98,51
1155,00;98,50
1154,00;98,49
1153,00;98,49
1152,00;98,48
1151,00;98,48
1150,00;98,49
1149,00;98,50
1148,00;98,49
1147,00;98,48
1146,00;98,47
1145,00;98,47
1144,00;98,47
1143,00;98,47
1142,00;98,47
1141,00;98,47
1140,00;98,48
1139,00;98,50
1138,00;98,51
1137,00;98,49
1136,00;98,46
1135,00;98,43
1134,00;98,42
1133,00;98,43
1132,00;98,44
1131,00;98,46
1130,00;98,48
1129,00;98,48
1128,00;98,49
1127,00;98,50
1126,00;98,52
1125,00;98,55
1124,00;98,57
1123,00;98,58
1122,00;98,58
1121,00;98,57
1120,00;98,56
1119,00;98,55
1118,00;98,56
1117,00;98,55
1116,00;98,52
1115,00;98,50
1114,00;98,50
1113,00;98,51
1112,00;98,52
1111,00;98,54
1110,00;98,56
1109,00;98,55
1108,00;98,53
1107,00;98,52
1106,00;98,51
1105,00;98,51
1104,00;98,49
1103,00;98,47
1102,00;98,47
1101,00;98,50
1100,00;98,52
1099,00;98,53
1098,00;98,52
1097,00;98,51
1096,00;98,52
1095,00;98,52
1094,00;98,53
1093,00;98,52
1092,00;98,52
1091,00;98,52
1090,00;98,53
1089,00;98,53
1088,00;98,51
1087,00;98,50
1086,00;98,49
1085,00;98,49
1084,00;98,48
1083,00;98,49
1082,00;98,52
1081,00;98,53
1080,00;98,52
1079,00;98,50
1078,00;98,48
1077,00;98,47
1076,00;98,47
1075,00;98,48
1074,00;98,49
1073,00;98,50
1072,00;98,49
1071,00;98,48
1070,00;98,49
1069,00;98,53
1068,00;98,57
1067,00;98,60
1066,00;98,62
1065,00;98,62
1064,00;98,61
1063,00;98,60
1062,00;98,60
1061,00;98,59
1060,00;98,57
1059,00;98,55
1058,00;98,53
1057,00;98,52
1056,00;98,51
1055,00;98,51
1054,00;98,52
1053,00;98,52
1052,00;98,52
1051,00;98,51
1050,00;98,52
1049,00;98,53
1048,00;98,52
1047,00;98,51
1046,00;98,51
1045,00;98,53
1044,00;98,54
1043,00;98,55
1042,00;98,55
1041,00;98,55
1040,00;98,55
1039,00;98,54
1038,00;98,53
1037,00;98,51
1036,00;98,50
1035,00;98,50
1034,00;98,51
1033,00;98,51
1032,00;98,51
1031,00;98,49
1030,00;98,49
1029,00;98,49
1028,00;98,50
1027,00;98,51
1026,00;98,52
1025,00;98,54
1024,00;98,56
1023,00;98,59
1022,00;98,61
1021,00;98,62
1020,00;98,61
1019,00;98,58
1018,00;98,56
1017,00;98,56
1016,00;98,55
1015,00;98,54
1014,00;98,52
1013,00;98,50
1012,00;98,49
1011,00;98,49
1010,00;98,52
1009,00;98,54
1008,00;98,54
1007,00;98,52
1006,00;98,51
1005,00;98,52
1004,00;98,54
1003,00;98,57
1002,00;98,58
1001,00;98,59
1000,00;98,58
999,00;98,58
998,00;98,59
997,00;98,59
996,00;98,58
995,00;98,58
994,00;98,59
993,00;98,59
992,00;98,59
991,00;98,59
990,00;98,58
989,00;98,57
988,00;98,55
987,00;98,54
986,00;98,53
985,00;98,53
984,00;98,53
983,00;98,53
982,00;98,54
981,00;98,56
980,00;98,58
979,00;98,58
978,00;98,58
977,00;98,57
976,00;98,56
975,00;98,56
974,00;98,58
973,00;98,61
972,00;98,64
971,00;98,65
970,00;98,64
969,00;98,62
968,00;98,61
967,00;98,60
966,00;98,61
965,00;98,62
964,00;98,61
963,00;98,60
962,00;98,58
961,00;98,57
960,00;98,56
959,00;98,55
958,00;98,55
957,00;98,55
956,00;98,56
955,00;98,57
954,00;98,57
953,00;98,58
952,00;98,60
951,00;98,61
950,00;98,61
949,00;98,60
948,00;98,58
947,00;98,57
946,00;98,60
945,00;98,64
944,00;98,65
943,00;98,65
942,00;98,64
941,00;98,62
940,00;98,62
939,00;98,62
938,00;98,61
937,00;98,59
936,00;98,56
935,00;98,54
934,00;98,56
933,00;98,60
932,00;98,63
931,00;98,64
930,00;98,63
929,00;98,60
928,00;98,58
927,00;98,56
926,00;98,56
925,00;98,57
924,00;98,60
923,00;98,61
922,00;98,60
921,00;98,59
920,00;98,57
919,00;98,58
918,00;98,60
917,00;98,61
916,00;98,61
915,00;98,61
914,00;98,62
913,00;98,63
912,00;98,63
911,00;98,62
910,00;98,60
909,00;98,59
908,00;98,59
907,00;98,62
906,00;98,66
905,00;98,69
904,00;98,70
903,00;98,68
902,00;98,64
901,00;98,62
900,00;98,62
899,00;98,64
898,00;98,68
897,00;98,73
896,00;98,76
895,00;98,77
894,00;98,76
893,00;98,73
892,00;98,69
891,00;98,65
890,00;98,63
889,00;98,62
888,00;98,61
887,00;98,61
886,00;98,62
885,00;98,64
884,00;98,65
883,00;98,65
882,00;98,65
881,00;98,64
880,00;98,63
879,00;98,63
878,00;98,63
877,00;98,63
876,00;98,61
875,00;98,58
874,00;98,57
873,00;98,58
872,00;98,60
871,00;98,62
870,00;98,66
869,00;98,68
868,00;98,68
867,00;98,67
866,00;98,65
865,00;98,62
864,00;98,58
863,00;98,55
862,00;98,54
861,00;98,55
860,00;98,58
859,00;98,61
858,00;98,63
857,00;98,64
856,00;98,62
855,00;98,59
854,00;98,57
853,00;98,58
852,00;98,60
851,00;98,62
850,00;98,63
849,00;98,63
848,00;98,62
847,00;98,59
846,00;98,57
845,00;98,56
844,00;98,56
843,00;98,57
842,00;98,58
841,00;98,58
840,00;98,58
839,00;98,59
838,00;98,61
837,00;98,63
836,00;98,63
835,00;98,62
834,00;98,61
833,00;98,62
832,00;98,62
831,00;98,63
830,00;98,62
829,00;98,62
828,00;98,61
827,00;98,61
826,00;98,61
825,00;98,59
824,00;98,57
823,00;98,54
822,00;98,52
821,00;98,52
820,00;98,54
819,00;98,58
818,00;98,64
817,00;98,66
816,00;98,63
815,00;98,57
814,00;98,54
813,00;98,55
812,00;98,57
811,00;98,61
810,00;98,63
809,00;98,64
808,00;98,62
807,00;98,59
806,00;98,56
805,00;98,54
804,00;98,53
803,00;98,54
802,00;98,57
801,00;98,61
800,00;98,65
799,00;98,66
798,00;98,63
797,00;98,57
796,00;98,51
795,00;98,49
794,00;98,49
793,00;98,52
792,00;98,55
791,00;98,57
790,00;98,59
789,00;98,60
788,00;98,61
787,00;98,62
786,00;98,61
785,00;98,59
784,00;98,54
783,00;98,50
782,00;98,48
781,00;98,49
780,00;98,52
779,00;98,53
778,00;98,53
777,00;98,53
776,00;98,53
775,00;98,54
774,00;98,56
773,00;98,56
772,00;98,56
771,00;98,55
770,00;98,54
769,00;98,55
768,00;98,57
767,00;98,59
766,00;98,61
765,00;98,61
764,00;98,61
763,00;98,60
762,00;98,58
761,00;98,54
760,00;98,50
759,00;98,46
758,00;98,45
757,00;98,48
756,00;98,53
755,00;98,59
754,00;98,65
753,00;98,68
752,00;98,67
751,00;98,64
750,00;98,63
749,00;98,63
748,00;98,65
747,00;98,66
746,00;98,66
745,00;98,64
744,00;98,59
743,00;98,52
742,00;98,47
741,00;98,46
740,00;98,48
739,00;98,52
738,00;98,56
737,00;98,56
736,00;98,52
735,00;98,49
734,00;98,50
733,00;98,55
732,00;98,61
731,00;98,63
730,00;98,62
729,00;98,60
728,00;98,58
727,00;98,57
726,00;98,58
725,00;98,59
724,00;98,59
723,00;98,57
722,00;98,54
721,00;98,52
720,00;98,51
719,00;98,53
718,00;98,55
717,00;98,53
716,00;98,49
715,00;98,44
714,00;98,43
713,00;98,45
712,00;98,49
711,00;98,51
710,00;98,50
709,00;98,47
708,00;98,45
707,00;98,44
706,00;98,44
705,00;98,44
704,00;98,43
703,00;98,43
702,00;98,45
701,00;98,49
700,00;98,50
699,00;98,48
698,00;98,44
697,00;98,39
696,00;98,35
695,00;98,33
694,00;98,36
693,00;98,43
692,00;98,51
691,00;98,56
690,00;98,55
689,00;98,50
688,00;98,47
687,00;98,48
686,00;98,52
685,00;98,56
684,00;98,59
683,00;98,59
682,00;98,55
681,00;98,50
680,00;98,47
679,00;98,49
678,00;98,56
677,00;98,61
676,00;98,64
675,00;98,63
674,00;98,61
673,00;98,57
672,00;98,53
671,00;98,49
670,00;98,44
669,00;98,41
668,00;98,44
667,00;98,51
666,00;98,51
665,00;98,42
664,00;98,32
663,00;98,28
662,00;98,30
661,00;98,36
660,00;98,41
659,00;98,48
658,00;98,55
657,00;98,58
656,00;98,57
655,00;98,54
654,00;98,54
653,00;98,53
652,00;98,52
651,00;98,49
650,00;98,42
649,00;98,29
648,00;98,12
647,00;98,01
646,00;98,04
645,00;98,18
644,00;98,36
643,00;98,53
642,00;98,63
641,00;98,62
640,00;98,48
639,00;98,34
638,00;98,30
637,00;98,34
636,00;98,36
635,00;98,42
634,00;98,59
633,00;98,85
632,00;99,00
631,00;98,95
630,00;98,80
629,00;98,78
628,00;98,92
627,00;99,10
626,00;99,13
625,00;98,98
624,00;98,77
623,00;98,67
622,00;98,70
621,00;98,79
620,00;98,85
619,00;98,90
618,00;99,05
617,00;99,34
616,00;99,72
615,00;100,00
614,00;100,01
613,00;99,77
612,00;99,49
611,00;99,31
610,00;99,17
609,00;98,91
608,00;98,51
607,00;98,20
606,00;98,19
605,00;98,37
604,00;98,56
603,00;98,68
602,00;98,78
601,00;98,80
600,00;98,66
