Created as New Dataset;Sample 002 By Administrator Date maandag, maart 02 2026
cm-1;%T
4000,00;99,59
3999,00;99,59
3998,00;99,59
3997,00;99,59
3996,00;99,58
3995,00;99,59
3994,00;99,59
3993,00;99,60
3992,00;99,61
3991,00;99,61
3990,00;99,62
3989,00;99,61
3988,00;99,60
3987,00;99,58
3986,00;99,57
3985,00;99,58
3984,00;99,59
3983,00;99,60
3982,00;99,60
3981,00;99,57
3980,00;99,53
3979,00;99,50
3978,00;99,48
3977,00;99,47
3976,00;99,48
3975,00;99,50
3974,00;99,52
3973,00;99,55
3972,00;99,57
3971,00;99,58
3970,00;99,58
3969,00;99,58
3968,00;99,58
3967,00;99,59
3966,00;99,59
3965,00;99,59
3964,00;99,58
3963,00;99,57
3962,00;99,57
3961,00;99,57
3960,00;99,57
3959,00;99,56
3958,00;99,55
3957,00;99,55
3956,00;99,55
3955,00;99,55
3954,00;99,53
3953,00;99,52
3952,00;99,51
3951,00;99,51
3950,00;99,53
3949,00;99,56
3948,00;99,57
3947,00;99,58
3946,00;99,58
3945,00;99,58
3944,00;99,60
3943,00;99,62
3942,00;99,64
3941,00;99,63
3940,00;99,61
3939,00;99,58
3938,00;99,56
3937,00;99,55
3936,00;99,55
3935,00;99,54
3934,00;99,52
3933,00;99,51
3932,00;99,51
3931,00;99,53
3930,00;99,56
3929,00;99,57
3928,00;99,56
3927,00;99,54
3926,00;99,52
3925,00;99,51
3924,00;99,51
3923,00;99,51
3922,00;99,51
3921,00;99,50
3920,00;99,50
3919,00;99,51
3918,00;99,53
3917,00;99,56
3916,00;99,58
3915,00;99,59
3914,00;99,59
3913,00;99,58
3912,00;99,57
3911,00;99,57
3910,00;99,56
3909,00;99,54
3908,00;99,51
3907,00;99,48
3906,00;99,46
3905,00;99,46
3904,00;99,47
3903,00;99,47
3902,00;99,46
3901,00;99,44
3900,00;99,44
3899,00;99,46
3898,00;99,47
3897,00;99,47
3896,00;99,46
3895,00;99,45
3894,00;99,47
3893,00;99,49
3892,00;99,53
3891,00;99,55
3890,00;99,53
3889,00;99,48
3888,00;99,41
3887,00;99,37
3886,00;99,37
3885,00;99,41
3884,00;99,44
3883,00;99,46
3882,00;99,47
3881,00;99,50
3880,00;99,54
3879,00;99,54
3878,00;99,51
3877,00;99,48
3876,00;99,47
3875,00;99,50
3874,00;99,53
3873,00;99,53
3872,00;99,49
3871,00;99,46
3870,00;99,45
3869,00;99,47
3868,00;99,46
3867,00;99,44
3866,00;99,43
3865,00;99,47
3864,00;99,52
3863,00;99,56
3862,00;99,55
3861,00;99,53
3860,00;99,50
3859,00;99,47
3858,00;99,45
3857,00;99,42
3856,00;99,39
3855,00;99,36
3854,00;99,34
3853,00;99,36
3852,00;99,36
3851,00;99,35
3850,00;99,36
3849,00;99,39
3848,00;99,43
3847,00;99,44
3846,00;99,44
3845,00;99,45
3844,00;99,46
3843,00;99,47
3842,00;99,46
3841,00;99,42
3840,00;99,36
3839,00;99,32
3838,00;99,32
3837,00;99,33
3836,00;99,35
3835,00;99,37
3834,00;99,39
3833,00;99,42
3832,00;99,43
3831,00;99,43
3830,00;99,42
3829,00;99,41
3828,00;99,42
3827,00;99,45
3826,00;99,48
3825,00;99,49
3824,00;99,47
3823,00;99,42
3822,00;99,39
3821,00;99,38
3820,00;99,38
3819,00;99,35
3818,00;99,30
3817,00;99,27
3816,00;99,29
3815,00;99,34
3814,00;99,37
3813,00;99,38
3812,00;99,39
3811,00;99,39
3810,00;99,37
3809,00;99,33
3808,00;99,30
3807,00;99,29
3806,00;99,29
3805,00;99,27
3804,00;99,24
3803,00;99,23
3802,00;99,27
3801,00;99,32
3800,00;99,34
3799,00;99,31
3798,00;99,30
3797,00;99,32
3796,00;99,35
3795,00;99,36
3794,00;99,33
3793,00;99,31
3792,00;99,32
3791,00;99,34
3790,00;99,36
3789,00;99,37
3788,00;99,35
3787,00;99,34
3786,00;99,33
3785,00;99,33
3784,00;99,34
3783,00;99,33
3782,00;99,31
3781,00;99,29
3780,00;99,26
3779,00;99,24
3778,00;99,23
3777,00;99,21
3776,00;99,21
3775,00;99,21
3774,00;99,21
3773,00;99,20
3772,00;99,19
3771,00;99,19
3770,00;99,22
3769,00;99,25
3768,00;99,25
3767,00;99,23
3766,00;99,21
3765,00;99,19
3764,00;99,17
3763,00;99,15
3762,00;99,13
3761,00;99,13
3760,00;99,14
3759,00;99,15
3758,00;99,14
3757,00;99,11
3756,00;99,07
3755,00;99,03
3754,00;98,99
3753,00;98,95
3752,00;98,91
3751,00;98,89
3750,00;98,88
3749,00;98,87
3748,00;98,85
3747,00;98,82
3746,00;98,79
3745,00;98,79
3744,00;98,82
3743,00;98,85
3742,00;98,84
3741,00;98,85
3740,00;98,88
3739,00;98,89
3738,00;98,87
3737,00;98,84
3736,00;98,82
3735,00;98,82
3734,00;98,82
3733,00;98,81
3732,00;98,78
3731,00;98,75
3730,00;98,73
3729,00;98,70
3728,00;98,68
3727,00;98,67
3726,00;98,66
3725,00;98,65
3724,00;98,64
3723,00;98,64
3722,00;98,64
3721,00;98,64
3720,00;98,61
3719,00;98,57
3718,00;98,53
3717,00;98,49
3716,00;98,46
3715,00;98,42
3714,00;98,37
3713,00;98,30
3712,00;98,23
3711,00;98,17
3710,00;98,13
3709,00;98,10
3708,00;98,07
3707,00;98,03
3706,00;98,00
3705,00;97,97
3704,00;97,94
3703,00;97,90
3702,00;97,85
3701,00;97,78
3700,00;97,71
3699,00;97,64
3698,00;97,57
3697,00;97,52
3696,00;97,47
3695,00;97,41
3694,00;97,34
3693,00;97,26
3692,00;97,17
3691,00;97,06
3690,00;96,94
3689,00;96,80
3688,00;96,66
3687,00;96,52
3686,00;96,40
3685,00;96,31
3684,00;96,24
3683,00;96,18
3682,00;96,11
3681,00;96,02
3680,00;95,93
3679,00;95,82
3678,00;95,68
3677,00;95,49
3676,00;95,23
3675,00;94,98
3674,00;94,81
3673,00;94,68
3672,00;94,57
3671,00;94,44
3670,00;94,27
3669,00;94,08
3668,00;93,91
3667,00;93,76
3666,00;93,62
3665,00;93,48
3664,00;93,32
3663,00;93,15
3662,00;92,98
3661,00;92,82
3660,00;92,67
3659,00;92,52
3658,00;92,35
3657,00;92,15
3656,00;91,95
3655,00;91,78
3654,00;91,65
3653,00;91,53
3652,00;91,40
3651,00;91,21
3650,00;90,97
3649,00;90,69
3648,00;90,45
3647,00;90,25
3646,00;90,10
3645,00;89,98
3644,00;89,86
3643,00;89,74
3642,00;89,61
3641,00;89,46
3640,00;89,30
3639,00;89,14
3638,00;88,98
3637,00;88,82
3636,00;88,67
3635,00;88,52
3634,00;88,37
3633,00;88,22
3632,00;88,08
3631,00;87,94
3630,00;87,76
3629,00;87,53
3628,00;87,31
3627,00;87,13
3626,00;86,99
3625,00;86,89
3624,00;86,81
3623,00;86,74
3622,00;86,65
3621,00;86,55
3620,00;86,41
3619,00;86,24
3618,00;86,07
3617,00;85,91
3616,00;85,76
3615,00;85,61
3614,00;85,47
3613,00;85,33
3612,00;85,21
3611,00;85,09
3610,00;84,95
3609,00;84,80
3608,00;84,63
3607,00;84,47
3606,00;84,34
3605,00;84,24
3604,00;84,13
3603,00;84,02
3602,00;83,89
3601,00;83,75
3600,00;83,61
3599,00;83,49
3598,00;83,39
3597,00;83,28
3596,00;83,15
3595,00;82,98
3594,00;82,79
3593,00;82,60
3592,00;82,44
3591,00;82,31
3590,00;82,20
3589,00;82,06
3588,00;81,89
3587,00;81,70
3586,00;81,54
3585,00;81,39
3584,00;81,26
3583,00;81,13
3582,00;81,00
3581,00;80,87
3580,00;80,75
3579,00;80,62
3578,00;80,49
3577,00;80,35
3576,00;80,19
3575,00;80,04
3574,00;79,88
3573,00;79,73
3572,00;79,60
3571,00;79,49
3570,00;79,37
3569,00;79,23
3568,00;79,04
3567,00;78,83
3566,00;78,63
3565,00;78,46
3564,00;78,32
3563,00;78,18
3562,00;78,04
3561,00;77,90
3560,00;77,75
3559,00;77,61
3558,00;77,46
3557,00;77,32
3556,00;77,19
3555,00;77,04
3554,00;76,88
3553,00;76,70
3552,00;76,52
3551,00;76,37
3550,00;76,24
3549,00;76,12
3548,00;75,98
3547,00;75,81
3546,00;75,61
3545,00;75,39
3544,00;75,19
3543,00;75,01
3542,00;74,86
3541,00;74,73
3540,00;74,60
3539,00;74,48
3538,00;74,34
3537,00;74,18
3536,00;74,02
3535,00;73,85
3534,00;73,68
3533,00;73,52
3532,00;73,37
3531,00;73,23
3530,00;73,09
3529,00;72,95
3528,00;72,80
3527,00;72,63
3526,00;72,46
3525,00;72,27
3524,00;72,08
3523,00;71,90
3522,00;71,75
3521,00;71,61
3520,00;71,46
3519,00;71,32
3518,00;71,17
3517,00;71,02
3516,00;70,86
3515,00;70,71
3514,00;70,55
3513,00;70,39
3512,00;70,23
3511,00;70,06
3510,00;69,90
3509,00;69,74
3508,00;69,60
3507,00;69,46
3506,00;69,31
3505,00;69,15
3504,00;68,97
3503,00;68,78
3502,00;68,62
3501,00;68,47
3500,00;68,34
3499,00;68,20
3498,00;68,05
3497,00;67,90
3496,00;67,74
3495,00;67,58
3494,00;67,43
3493,00;67,28
3492,00;67,13
3491,00;66,97
3490,00;66,81
3489,00;66,65
3488,00;66,48
3487,00;66,32
3486,00;66,17
3485,00;66,05
3484,00;65,92
3483,00;65,78
3482,00;65,62
3481,00;65,45
3480,00;65,28
3479,00;65,11
3478,00;64,95
3477,00;64,79
3476,00;64,63
3475,00;64,48
3474,00;64,33
3473,00;64,17
3472,00;64,01
3471,00;63,85
3470,00;63,70
3469,00;63,54
3468,00;63,38
3467,00;63,23
3466,00;63,09
3465,00;62,95
3464,00;62,81
3463,00;62,66
3462,00;62,50
3461,00;62,32
3460,00;62,15
3459,00;61,99
3458,00;61,83
3457,00;61,70
3456,00;61,57
3455,00;61,44
3454,00;61,31
3453,00;61,16
3452,00;61,01
3451,00;60,84
3450,00;60,67
3449,00;60,49
3448,00;60,31
3447,00;60,14
3446,00;59,99
3445,00;59,86
3444,00;59,73
3443,00;59,60
3442,00;59,46
3441,00;59,31
3440,00;59,15
3439,00;58,99
3438,00;58,82
3437,00;58,66
3436,00;58,52
3435,00;58,39
3434,00;58,27
3433,00;58,14
3432,00;58,01
3431,00;57,87
3430,00;57,72
3429,00;57,57
3428,00;57,42
3427,00;57,27
3426,00;57,13
3425,00;56,99
3424,00;56,85
3423,00;56,71
3422,00;56,56
3421,00;56,42
3420,00;56,30
3419,00;56,18
3418,00;56,07
3417,00;55,96
3416,00;55,83
3415,00;55,69
3414,00;55,56
3413,00;55,42
3412,00;55,30
3411,00;55,17
3410,00;55,05
3409,00;54,92
3408,00;54,80
3407,00;54,68
3406,00;54,56
3405,00;54,44
3404,00;54,33
3403,00;54,22
3402,00;54,13
3401,00;54,03
3400,00;53,94
3399,00;53,84
3398,00;53,73
3397,00;53,62
3396,00;53,51
3395,00;53,40
3394,00;53,30
3393,00;53,21
3392,00;53,11
3391,00;53,02
3390,00;52,95
3389,00;52,88
3388,00;52,83
3387,00;52,76
3386,00;52,68
3385,00;52,58
3384,00;52,49
3383,00;52,41
3382,00;52,36
3381,00;52,30
3380,00;52,24
3379,00;52,16
3378,00;52,08
3377,00;52,01
3376,00;51,94
3375,00;51,88
3374,00;51,82
3373,00;51,77
3372,00;51,72
3371,00;51,66
3370,00;51,60
3369,00;51,54
3368,00;51,48
3367,00;51,44
3366,00;51,40
3365,00;51,37
3364,00;51,34
3363,00;51,29
3362,00;51,24
3361,00;51,19
3360,00;51,14
3359,00;51,10
3358,00;51,08
3357,00;51,07
3356,00;51,05
3355,00;51,02
3354,00;50,99
3353,00;50,96
3352,00;50,93
3351,00;50,92
3350,00;50,91
3349,00;50,91
3348,00;50,89
3347,00;50,86
3346,00;50,82
3345,00;50,78
3344,00;50,76
3343,00;50,74
3342,00;50,73
3341,00;50,73
3340,00;50,72
3339,00;50,71
3338,00;50,70
3337,00;50,70
3336,00;50,70
3335,00;50,72
3334,00;50,72
3333,00;50,72
3332,00;50,72
3331,00;50,70
3330,00;50,69
3329,00;50,68
3328,00;50,68
3327,00;50,68
3326,00;50,70
3325,00;50,70
3324,00;50,69
3323,00;50,68
3322,00;50,66
3321,00;50,66
3320,00;50,68
3319,00;50,69
3318,00;50,71
3317,00;50,71
3316,00;50,71
3315,00;50,70
3314,00;50,70
3313,00;50,69
3312,00;50,68
3311,00;50,69
3310,00;50,69
3309,00;50,70
3308,00;50,70
3307,00;50,70
3306,00;50,71
3305,00;50,72
3304,00;50,73
3303,00;50,73
3302,00;50,73
3301,00;50,72
3300,00;50,72
3299,00;50,72
3298,00;50,72
3297,00;50,72
3296,00;50,74
3295,00;50,76
3294,00;50,78
3293,00;50,78
3292,00;50,77
3291,00;50,75
3290,00;50,75
3289,00;50,76
3288,00;50,78
3287,00;50,80
3286,00;50,82
3285,00;50,82
3284,00;50,82
3283,00;50,82
3282,00;50,82
3281,00;50,83
3280,00;50,84
3279,00;50,84
3278,00;50,83
3277,00;50,82
3276,00;50,82
3275,00;50,84
3274,00;50,86
3273,00;50,87
3272,00;50,88
3271,00;50,89
3270,00;50,91
3269,00;50,92
3268,00;50,93
3267,00;50,94
3266,00;50,94
3265,00;50,95
3264,00;50,97
3263,00;50,99
3262,00;51,01
3261,00;51,02
3260,00;51,04
3259,00;51,05
3258,00;51,07
3257,00;51,08
3256,00;51,10
3255,00;51,12
3254,00;51,15
3253,00;51,18
3252,00;51,20
3251,00;51,22
3250,00;51,23
3249,00;51,25
3248,00;51,28
3247,00;51,32
3246,00;51,36
3245,00;51,40
3244,00;51,44
3243,00;51,48
3242,00;51,52
3241,00;51,57
3240,00;51,60
3239,00;51,63
3238,00;51,66
3237,00;51,71
3236,00;51,76
3235,00;51,82
3234,00;51,87
3233,00;51,92
3232,00;51,98
3231,00;52,04
3230,00;52,11
3229,00;52,17
3228,00;52,22
3227,00;52,27
3226,00;52,33
3225,00;52,41
3224,00;52,50
3223,00;52,61
3222,00;52,72
3221,00;52,82
3220,00;52,91
3219,00;52,99
3218,00;53,06
3217,00;53,13
3216,00;53,21
3215,00;53,29
3214,00;53,39
3213,00;53,49
3212,00;53,59
3211,00;53,71
3210,00;53,82
3209,00;53,94
3208,00;54,05
3207,00;54,16
3206,00;54,27
3205,00;54,39
3204,00;54,51
3203,00;54,63
3202,00;54,77
3201,00;54,90
3200,00;55,04
3199,00;55,17
3198,00;55,30
3197,00;55,43
3196,00;55,56
3195,00;55,69
3194,00;55,83
3193,00;55,98
3192,00;56,13
3191,00;56,29
3190,00;56,45
3189,00;56,61
3188,00;56,78
3187,00;56,93
3186,00;57,08
3185,00;57,23
3184,00;57,39
3183,00;57,56
3182,00;57,73
3181,00;57,90
3180,00;58,07
3179,00;58,24
3178,00;58,41
3177,00;58,59
3176,00;58,78
3175,00;58,96
3174,00;59,15
3173,00;59,34
3172,00;59,53
3171,00;59,73
3170,00;59,92
3169,00;60,10
3168,00;60,29
3167,00;60,48
3166,00;60,66
3165,00;60,84
3164,00;61,02
3163,00;61,21
3162,00;61,40
3161,00;61,59
3160,00;61,78
3159,00;61,98
3158,00;62,17
3157,00;62,37
3156,00;62,57
3155,00;62,78
3154,00;62,99
3153,00;63,20
3152,00;63,41
3151,00;63,62
3150,00;63,83
3149,00;64,05
3148,00;64,25
3147,00;64,45
3146,00;64,65
3145,00;64,85
3144,00;65,06
3143,00;65,27
3142,00;65,48
3141,00;65,69
3140,00;65,90
3139,00;66,11
3138,00;66,33
3137,00;66,55
3136,00;66,77
3135,00;66,99
3134,00;67,20
3133,00;67,42
3132,00;67,62
3131,00;67,83
3130,00;68,03
3129,00;68,24
3128,00;68,45
3127,00;68,67
3126,00;68,88
3125,00;69,09
3124,00;69,30
3123,00;69,51
3122,00;69,73
3121,00;69,93
3120,00;70,14
3119,00;70,34
3118,00;70,54
3117,00;70,74
3116,00;70,96
3115,00;71,18
3114,00;71,40
3113,00;71,60
3112,00;71,80
3111,00;71,99
3110,00;72,19
3109,00;72,39
3108,00;72,61
3107,00;72,83
3106,00;73,05
3105,00;73,25
3104,00;73,46
3103,00;73,66
3102,00;73,86
3101,00;74,06
3100,00;74,25
3099,00;74,43
3098,00;74,61
3097,00;74,81
3096,00;75,02
3095,00;75,24
3094,00;75,46
3093,00;75,66
3092,00;75,85
3091,00;76,03
3090,00;76,21
3089,00;76,39
3088,00;76,58
3087,00;76,78
3086,00;76,97
3085,00;77,15
3084,00;77,33
3083,00;77,51
3082,00;77,70
3081,00;77,88
3080,00;78,06
3079,00;78,24
3078,00;78,41
3077,00;78,59
3076,00;78,77
3075,00;78,96
3074,00;79,14
3073,00;79,31
3072,00;79,49
3071,00;79,67
3070,00;79,85
3069,00;80,04
3068,00;80,22
3067,00;80,40
3066,00;80,56
3065,00;80,72
3064,00;80,87
3063,00;81,03
3062,00;81,19
3061,00;81,34
3060,00;81,49
3059,00;81,64
3058,00;81,79
3057,00;81,95
3056,00;82,11
3055,00;82,27
3054,00;82,43
3053,00;82,60
3052,00;82,76
3051,00;82,92
3050,00;83,08
3049,00;83,23
3048,00;83,38
3047,00;83,53
3046,00;83,68
3045,00;83,82
3044,00;83,95
3043,00;84,08
3042,00;84,22
3041,00;84,36
3040,00;84,50
3039,00;84,64
3038,00;84,78
3037,00;84,92
3036,00;85,07
3035,00;85,21
3034,00;85,35
3033,00;85,49
3032,00;85,63
3031,00;85,76
3030,00;85,90
3029,00;86,03
3028,00;86,16
3027,00;86,29
3026,00;86,42
3025,00;86,55
3024,00;86,68
3023,00;86,81
3022,00;86,92
3021,00;87,03
3020,00;87,13
3019,00;87,24
3018,00;87,35
3017,00;87,48
3016,00;87,60
3015,00;87,71
3014,00;87,82
3013,00;87,93
3012,00;88,05
3011,00;88,16
3010,00;88,28
3009,00;88,39
3008,00;88,51
3007,00;88,61
3006,00;88,71
3005,00;88,80
3004,00;88,90
3003,00;89,01
3002,00;89,12
3001,00;89,22
3000,00;89,32
2999,00;89,41
2998,00;89,50
2997,00;89,59
2996,00;89,70
2995,00;89,80
2994,00;89,90
2993,00;89,99
2992,00;90,08
2991,00;90,16
2990,00;90,25
2989,00;90,34
2988,00;90,43
2987,00;90,52
2986,00;90,60
2985,00;90,68
2984,00;90,76
2983,00;90,85
2982,00;90,96
2981,00;91,06
2980,00;91,16
2979,00;91,24
2978,00;91,32
2977,00;91,41
2976,00;91,49
2975,00;91,58
2974,00;91,68
2973,00;91,78
2972,00;91,87
2971,00;91,96
2970,00;92,03
2969,00;92,09
2968,00;92,15
2967,00;92,23
2966,00;92,31
2965,00;92,40
2964,00;92,47
2963,00;92,53
2962,00;92,58
2961,00;92,64
2960,00;92,70
2959,00;92,77
2958,00;92,85
2957,00;92,93
2956,00;93,00
2955,00;93,05
2954,00;93,11
2953,00;93,18
2952,00;93,25
2951,00;93,32
2950,00;93,38
2949,00;93,44
2948,00;93,50
2947,00;93,56
2946,00;93,63
2945,00;93,70
2944,00;93,76
2943,00;93,83
2942,00;93,89
2941,00;93,96
2940,00;94,02
2939,00;94,08
2938,00;94,14
2937,00;94,20
2936,00;94,26
2935,00;94,32
2934,00;94,38
2933,00;94,45
2932,00;94,51
2931,00;94,57
2930,00;94,63
2929,00;94,70
2928,00;94,76
2927,00;94,83
2926,00;94,89
2925,00;94,95
2924,00;94,99
2923,00;95,03
2922,00;95,07
2921,00;95,10
2920,00;95,13
2919,00;95,16
2918,00;95,20
2917,00;95,24
2916,00;95,28
2915,00;95,33
2914,00;95,37
2913,00;95,39
2912,00;95,42
2911,00;95,45
2910,00;95,50
2909,00;95,54
2908,00;95,57
2907,00;95,60
2906,00;95,63
2905,00;95,65
2904,00;95,68
2903,00;95,71
2902,00;95,75
2901,00;95,78
2900,00;95,82
2899,00;95,86
2898,00;95,90
2897,00;95,94
2896,00;95,98
2895,00;96,02
2894,00;96,06
2893,00;96,09
2892,00;96,11
2891,00;96,13
2890,00;96,16
2889,00;96,19
2888,00;96,22
2887,00;96,25
2886,00;96,28
2885,00;96,31
2884,00;96,34
2883,00;96,37
2882,00;96,41
2881,00;96,44
2880,00;96,47
2879,00;96,51
2878,00;96,56
2877,00;96,59
2876,00;96,61
2875,00;96,63
2874,00;96,65
2873,00;96,68
2872,00;96,71
2871,00;96,74
2870,00;96,78
2869,00;96,82
2868,00;96,85
2867,00;96,88
2866,00;96,91
2865,00;96,92
2864,00;96,94
2863,00;96,97
2862,00;97,01
2861,00;97,05
2860,00;97,09
2859,00;97,12
2858,00;97,15
2857,00;97,18
2856,00;97,21
2855,00;97,24
2854,00;97,27
2853,00;97,29
2852,00;97,31
2851,00;97,32
2850,00;97,34
2849,00;97,37
2848,00;97,40
2847,00;97,42
2846,00;97,44
2845,00;97,45
2844,00;97,47
2843,00;97,48
2842,00;97,49
2841,00;97,50
2840,00;97,50
2839,00;97,52
2838,00;97,54
2837,00;97,57
2836,00;97,59
2835,00;97,61
2834,00;97,62
2833,00;97,64
2832,00;97,66
2831,00;97,68
2830,00;97,70
2829,00;97,72
2828,00;97,74
2827,00;97,75
2826,00;97,76
2825,00;97,77
2824,00;97,78
2823,00;97,80
2822,00;97,81
2821,00;97,83
2820,00;97,84
2819,00;97,86
2818,00;97,88
2817,00;97,89
2816,00;97,91
2815,00;97,93
2814,00;97,95
2813,00;97,98
2812,00;97,99
2811,00;98,00
2810,00;98,00
2809,00;98,01
2808,00;98,02
2807,00;98,04
2806,00;98,06
2805,00;98,08
2804,00;98,10
2803,00;98,11
2802,00;98,12
2801,00;98,12
2800,00;98,13
2799,00;98,14
2798,00;98,15
2797,00;98,17
2796,00;98,18
2795,00;98,19
2794,00;98,20
2793,00;98,21
2792,00;98,23
2791,00;98,26
2790,00;98,28
2789,00;98,30
2788,00;98,30
2787,00;98,31
2786,00;98,32
2785,00;98,33
2784,00;98,34
2783,00;98,35
2782,00;98,36
2781,00;98,37
2780,00;98,37
2779,00;98,38
2778,00;98,39
2777,00;98,41
2776,00;98,42
2775,00;98,43
2774,00;98,44
2773,00;98,45
2772,00;98,47
2771,00;98,49
2770,00;98,49
2769,00;98,49
2768,00;98,49
2767,00;98,50
2766,00;98,51
2765,00;98,53
2764,00;98,54
2763,00;98,54
2762,00;98,55
2761,00;98,55
2760,00;98,55
2759,00;98,56
2758,00;98,58
2757,00;98,59
2756,00;98,60
2755,00;98,61
2754,00;98,62
2753,00;98,62
2752,00;98,63
2751,00;98,64
2750,00;98,65
2749,00;98,67
2748,00;98,69
2747,00;98,70
2746,00;98,70
2745,00;98,70
2744,00;98,70
2743,00;98,70
2742,00;98,70
2741,00;98,71
2740,00;98,71
2739,00;98,72
2738,00;98,72
2737,00;98,73
2736,00;98,74
2735,00;98,75
2734,00;98,77
2733,00;98,78
2732,00;98,79
2731,00;98,80
2730,00;98,81
2729,00;98,81
2728,00;98,82
2727,00;98,82
2726,00;98,83
2725,00;98,82
2724,00;98,82
2723,00;98,81
2722,00;98,80
2721,00;98,80
2720,00;98,81
2719,00;98,83
2718,00;98,85
2717,00;98,87
2716,00;98,88
2715,00;98,88
2714,00;98,89
2713,00;98,89
2712,00;98,90
2711,00;98,91
2710,00;98,90
2709,00;98,90
2708,00;98,89
2707,00;98,88
2706,00;98,88
2705,00;98,89
2704,00;98,90
2703,00;98,91
2702,00;98,92
2701,00;98,93
2700,00;98,93
2699,00;98,94
2698,00;98,95
2697,00;98,96
2696,00;98,96
2695,00;98,95
2694,00;98,95
2693,00;98,95
2692,00;98,95
2691,00;98,95
2690,00;98,95
2689,00;98,96
2688,00;98,97
2687,00;98,97
2686,00;98,97
2685,00;98,96
2684,00;98,96
2683,00;98,97
2682,00;98,99
2681,00;99,01
2680,00;99,02
2679,00;99,03
2678,00;99,03
2677,00;99,03
2676,00;99,02
2675,00;99,01
2674,00;99,01
2673,00;99,01
2672,00;99,01
2671,00;99,02
2670,00;99,04
2669,00;99,04
2668,00;99,05
2667,00;99,05
2666,00;99,05
2665,00;99,06
2664,00;99,06
2663,00;99,06
2662,00;99,05
2661,00;99,04
2660,00;99,04
2659,00;99,04
2658,00;99,05
2657,00;99,06
2656,00;99,07
2655,00;99,07
2654,00;99,06
2653,00;99,05
2652,00;99,04
2651,00;99,04
2650,00;99,05
2649,00;99,05
2648,00;99,06
2647,00;99,07
2646,00;99,07
2645,00;99,07
2644,00;99,06
2643,00;99,06
2642,00;99,06
2641,00;99,07
2640,00;99,07
2639,00;99,07
2638,00;99,06
2637,00;99,06
2636,00;99,07
2635,00;99,06
2634,00;99,05
2633,00;99,04
2632,00;99,05
2631,00;99,06
2630,00;99,08
2629,00;99,09
2628,00;99,09
2627,00;99,09
2626,00;99,09
2625,00;99,09
2624,00;99,09
2623,00;99,09
2622,00;99,09
2621,00;99,08
2620,00;99,06
2619,00;99,04
2618,00;99,04
2617,00;99,04
2616,00;99,05
2615,00;99,06
2614,00;99,07
2613,00;99,07
2612,00;99,06
2611,00;99,05
2610,00;99,04
2609,00;99,04
2608,00;99,04
2607,00;99,05
2606,00;99,05
2605,00;99,04
2604,00;99,04
2603,00;99,05
2602,00;99,06
2601,00;99,06
2600,00;99,06
2599,00;99,06
2598,00;99,05
2597,00;99,04
2596,00;99,04
2595,00;99,04
2594,00;99,05
2593,00;99,07
2592,00;99,09
2591,00;99,10
2590,00;99,11
2589,00;99,10
2588,00;99,08
2587,00;99,06
2586,00;99,06
2585,00;99,07
2584,00;99,09
2583,00;99,10
2582,00;99,08
2581,00;99,05
2580,00;99,02
2579,00;99,01
2578,00;99,01
2577,00;99,03
2576,00;99,04
2575,00;99,04
2574,00;99,03
2573,00;99,01
2572,00;99,01
2571,00;99,01
2570,00;99,02
2569,00;99,02
2568,00;99,03
2567,00;99,03
2566,00;99,03
2565,00;99,03
2564,00;99,03
2563,00;99,01
2562,00;99,00
2561,00;99,00
2560,00;99,01
2559,00;99,03
2558,00;99,04
2557,00;99,04
2556,00;99,03
2555,00;99,02
2554,00;99,02
2553,00;99,02
2552,00;99,02
2551,00;99,01
2550,00;99,01
2549,00;98,99
2548,00;98,98
2547,00;98,97
2546,00;98,96
2545,00;98,96
2544,00;98,96
2543,00;98,96
2542,00;98,96
2541,00;98,96
2540,00;98,95
2539,00;98,96
2538,00;98,97
2537,00;98,98
2536,00;98,98
2535,00;98,98
2534,00;98,98
2533,00;98,97
2532,00;98,96
2531,00;98,96
2530,00;98,97
2529,00;98,98
2528,00;98,97
2527,00;98,96
2526,00;98,95
2525,00;98,95
2524,00;98,94
2523,00;98,94
2522,00;98,93
2521,00;98,91
2520,00;98,89
2519,00;98,88
2518,00;98,86
2517,00;98,86
2516,00;98,85
2515,00;98,86
2514,00;98,86
2513,00;98,86
2512,00;98,86
2511,00;98,86
2510,00;98,86
2509,00;98,87
2508,00;98,88
2507,00;98,88
2506,00;98,87
2505,00;98,86
2504,00;98,85
2503,00;98,84
2502,00;98,83
2501,00;98,82
2500,00;98,82
2499,00;98,82
2498,00;98,82
2497,00;98,82
2496,00;98,82
2495,00;98,82
2494,00;98,81
2493,00;98,80
2492,00;98,78
2491,00;98,76
2490,00;98,76
2489,00;98,77
2488,00;98,78
2487,00;98,79
2486,00;98,79
2485,00;98,78
2484,00;98,76
2483,00;98,75
2482,00;98,75
2481,00;98,74
2480,00;98,73
2479,00;98,72
2478,00;98,72
2477,00;98,73
2476,00;98,74
2475,00;98,74
2474,00;98,73
2473,00;98,71
2472,00;98,70
2471,00;98,70
2470,00;98,71
2469,00;98,72
2468,00;98,72
2467,00;98,72
2466,00;98,71
2465,00;98,70
2464,00;98,68
2463,00;98,65
2462,00;98,64
2461,00;98,65
2460,00;98,67
2459,00;98,69
2458,00;98,69
2457,00;98,67
2456,00;98,65
2455,00;98,64
2454,00;98,64
2453,00;98,65
2452,00;98,66
2451,00;98,67
2450,00;98,67
2449,00;98,67
2448,00;98,67
2447,00;98,67
2446,00;98,66
2445,00;98,64
2444,00;98,61
2443,00;98,59
2442,00;98,59
2441,00;98,58
2440,00;98,58
2439,00;98,56
2438,00;98,54
2437,00;98,54
2436,00;98,54
2435,00;98,55
2434,00;98,54
2433,00;98,53
2432,00;98,51
2431,00;98,50
2430,00;98,51
2429,00;98,53
2428,00;98,54
2427,00;98,53
2426,00;98,52
2425,00;98,50
2424,00;98,48
2423,00;98,45
2422,00;98,44
2421,00;98,44
2420,00;98,44
2419,00;98,45
2418,00;98,45
2417,00;98,44
2416,00;98,43
2415,00;98,42
2414,00;98,42
2413,00;98,43
2412,00;98,43
2411,00;98,43
2410,00;98,42
2409,00;98,41
2408,00;98,40
2407,00;98,38
2406,00;98,38
2405,00;98,38
2404,00;98,38
2403,00;98,36
2402,00;98,35
2401,00;98,34
2400,00;98,34
2399,00;98,34
2398,00;98,34
2397,00;98,34
2396,00;98,34
2395,00;98,34
2394,00;98,34
2393,00;98,34
2392,00;98,35
2391,00;98,34
2390,00;98,32
2389,00;98,30
2388,00;98,27
2387,00;98,25
2386,00;98,25
2385,00;98,26
2384,00;98,28
2383,00;98,29
2382,00;98,30
2381,00;98,30
2380,00;98,30
2379,00;98,30
2378,00;98,30
2377,00;98,29
2376,00;98,27
2375,00;98,26
2374,00;98,26
2373,00;98,27
2372,00;98,28
2371,00;98,30
2370,00;98,33
2369,00;98,35
2368,00;98,34
2367,00;98,28
2366,00;98,20
2365,00;98,12
2364,00;98,08
2363,00;98,08
2362,00;98,14
2361,00;98,21
2360,00;98,27
2359,00;98,29
2358,00;98,27
2357,00;98,23
2356,00;98,18
2355,00;98,13
2354,00;98,09
2353,00;98,05
2352,00;98,03
2351,00;98,04
2350,00;98,07
2349,00;98,08
2348,00;98,07
2347,00;98,03
2346,00;98,01
2345,00;98,00
2344,00;98,02
2343,00;98,04
2342,00;98,04
2341,00;98,03
2340,00;97,99
2339,00;97,95
2338,00;97,92
2337,00;97,92
2336,00;97,92
2335,00;97,93
2334,00;97,94
2333,00;97,93
2332,00;97,91
2331,00;97,89
2330,00;97,88
2329,00;97,88
2328,00;97,91
2327,00;97,94
2326,00;97,96
2325,00;97,95
2324,00;97,90
2323,00;97,85
2322,00;97,82
2321,00;97,81
2320,00;97,80
2319,00;97,79
2318,00;97,76
2317,00;97,72
2316,00;97,71
2315,00;97,71
2314,00;97,73
2313,00;97,73
2312,00;97,73
2311,00;97,72
2310,00;97,71
2309,00;97,71
2308,00;97,70
2307,00;97,69
2306,00;97,68
2305,00;97,67
2304,00;97,65
2303,00;97,63
2302,00;97,62
2301,00;97,62
2300,00;97,62
2299,00;97,63
2298,00;97,62
2297,00;97,61
2296,00;97,59
2295,00;97,56
2294,00;97,55
2293,00;97,55
2292,00;97,55
2291,00;97,54
2290,00;97,52
2289,00;97,51
2288,00;97,51
2287,00;97,52
2286,00;97,51
2285,00;97,49
2284,00;97,45
2283,00;97,40
2282,00;97,37
2281,00;97,35
2280,00;97,34
2279,00;97,34
2278,00;97,33
2277,00;97,33
2276,00;97,33
2275,00;97,34
2274,00;97,35
2273,00;97,33
2272,00;97,32
2271,00;97,30
2270,00;97,29
2269,00;97,26
2268,00;97,22
2267,00;97,20
2266,00;97,20
2265,00;97,20
2264,00;97,18
2263,00;97,15
2262,00;97,13
2261,00;97,12
2260,00;97,12
2259,00;97,13
2258,00;97,13
2257,00;97,14
2256,00;97,15
2255,00;97,15
2254,00;97,16
2253,00;97,16
2252,00;97,16
2251,00;97,15
2250,00;97,12
2249,00;97,07
2248,00;97,03
2247,00;97,00
2246,00;96,99
2245,00;97,00
2244,00;97,02
2243,00;97,03
2242,00;97,03
2241,00;97,01
2240,00;96,97
2239,00;96,95
2238,00;96,96
2237,00;96,99
2236,00;96,99
2235,00;96,97
2234,00;96,93
2233,00;96,89
2232,00;96,84
2231,00;96,81
2230,00;96,81
2229,00;96,83
2228,00;96,85
2227,00;96,86
2226,00;96,87
2225,00;96,86
2224,00;96,84
2223,00;96,81
2222,00;96,77
2221,00;96,72
2220,00;96,69
2219,00;96,67
2218,00;96,67
2217,00;96,69
2216,00;96,70
2215,00;96,73
2214,00;96,74
2213,00;96,73
2212,00;96,71
2211,00;96,68
2210,00;96,65
2209,00;96,61
2208,00;96,56
2207,00;96,51
2206,00;96,49
2205,00;96,49
2204,00;96,51
2203,00;96,54
2202,00;96,57
2201,00;96,57
2200,00;96,56
2199,00;96,54
2198,00;96,55
2197,00;96,56
2196,00;96,57
2195,00;96,54
2194,00;96,49
2193,00;96,41
2192,00;96,35
2191,00;96,32
2190,00;96,34
2189,00;96,36
2188,00;96,36
2187,00;96,35
2186,00;96,35
2185,00;96,35
2184,00;96,36
2183,00;96,38
2182,00;96,39
2181,00;96,37
2180,00;96,33
2179,00;96,29
2178,00;96,26
2177,00;96,28
2176,00;96,31
2175,00;96,33
2174,00;96,32
2173,00;96,27
2172,00;96,22
2171,00;96,20
2170,00;96,21
2169,00;96,22
2168,00;96,20
2167,00;96,19
2166,00;96,19
2165,00;96,19
2164,00;96,17
2163,00;96,14
2162,00;96,13
2161,00;96,12
2160,00;96,10
2159,00;96,10
2158,00;96,11
2157,00;96,13
2156,00;96,13
2155,00;96,11
2154,00;96,09
2153,00;96,07
2152,00;96,06
2151,00;96,07
2150,00;96,09
2149,00;96,10
2148,00;96,09
2147,00;96,08
2146,00;96,06
2145,00;96,03
2144,00;95,99
2143,00;95,96
2142,00;95,94
2141,00;95,93
2140,00;95,91
2139,00;95,89
2138,00;95,89
2137,00;95,90
2136,00;95,91
2135,00;95,92
2134,00;95,93
2133,00;95,94
2132,00;95,93
2131,00;95,93
2130,00;95,93
2129,00;95,92
2128,00;95,89
2127,00;95,86
2126,00;95,85
2125,00;95,85
2124,00;95,87
2123,00;95,89
2122,00;95,91
2121,00;95,92
2120,00;95,90
2119,00;95,87
2118,00;95,85
2117,00;95,84
2116,00;95,84
2115,00;95,85
2114,00;95,88
2113,00;95,90
2112,00;95,91
2111,00;95,90
2110,00;95,88
2109,00;95,87
2108,00;95,87
2107,00;95,89
2106,00;95,92
2105,00;95,93
2104,00;95,92
2103,00;95,90
2102,00;95,89
2101,00;95,87
2100,00;95,84
2099,00;95,83
2098,00;95,84
2097,00;95,86
2096,00;95,89
2095,00;95,90
2094,00;95,90
2093,00;95,88
2092,00;95,87
2091,00;95,86
2090,00;95,88
2089,00;95,91
2088,00;95,94
2087,00;95,98
2086,00;96,01
2085,00;96,02
2084,00;96,02
2083,00;96,03
2082,00;96,04
2081,00;96,03
2080,00;96,00
2079,00;95,98
2078,00;95,98
2077,00;95,98
2076,00;95,98
2075,00;95,98
2074,00;95,99
2073,00;96,01
2072,00;96,04
2071,00;96,07
2070,00;96,09
2069,00;96,10
2068,00;96,11
2067,00;96,13
2066,00;96,16
2065,00;96,19
2064,00;96,19
2063,00;96,16
2062,00;96,14
2061,00;96,13
2060,00;96,14
2059,00;96,16
2058,00;96,19
2057,00;96,22
2056,00;96,23
2055,00;96,22
2054,00;96,21
2053,00;96,20
2052,00;96,22
2051,00;96,26
2050,00;96,31
2049,00;96,34
2048,00;96,36
2047,00;96,39
2046,00;96,43
2045,00;96,45
2044,00;96,42
2043,00;96,39
2042,00;96,39
2041,00;96,41
2040,00;96,42
2039,00;96,41
2038,00;96,39
2037,00;96,37
2036,00;96,35
2035,00;96,35
2034,00;96,38
2033,00;96,42
2032,00;96,45
2031,00;96,49
2030,00;96,53
2029,00;96,56
2028,00;96,56
2027,00;96,58
2026,00;96,62
2025,00;96,67
2024,00;96,68
2023,00;96,66
2022,00;96,62
2021,00;96,57
2020,00;96,55
2019,00;96,57
2018,00;96,62
2017,00;96,65
2016,00;96,63
2015,00;96,62
2014,00;96,64
2013,00;96,69
2012,00;96,73
2011,00;96,76
2010,00;96,80
2009,00;96,84
2008,00;96,86
2007,00;96,86
2006,00;96,87
2005,00;96,89
2004,00;96,89
2003,00;96,87
2002,00;96,86
2001,00;96,85
2000,00;96,83
1999,00;96,82
1998,00;96,80
1997,00;96,80
1996,00;96,81
1995,00;96,82
1994,00;96,85
1993,00;96,87
1992,00;96,89
1991,00;96,93
1990,00;96,98
1989,00;97,03
1988,00;97,05
1987,00;97,08
1986,00;97,12
1985,00;97,14
1984,00;97,11
1983,00;97,06
1982,00;97,04
1981,00;97,07
1980,00;97,13
1979,00;97,19
1978,00;97,24
1977,00;97,24
1976,00;97,20
1975,00;97,16
1974,00;97,15
1973,00;97,16
1972,00;97,17
1971,00;97,17
1970,00;97,17
1969,00;97,19
1968,00;97,22
1967,00;97,25
1966,00;97,29
1965,00;97,30
1964,00;97,31
1963,00;97,33
1962,00;97,36
1961,00;97,37
1960,00;97,33
1959,00;97,28
1958,00;97,25
1957,00;97,24
1956,00;97,23
1955,00;97,22
1954,00;97,24
1953,00;97,28
1952,00;97,32
1951,00;97,37
1950,00;97,41
1949,00;97,43
1948,00;97,43
1947,00;97,44
1946,00;97,45
1945,00;97,43
1944,00;97,39
1943,00;97,38
1942,00;97,40
1941,00;97,44
1940,00;97,46
1939,00;97,46
1938,00;97,43
1937,00;97,39
1936,00;97,36
1935,00;97,36
1934,00;97,38
1933,00;97,40
1932,00;97,42
1931,00;97,44
1930,00;97,46
1929,00;97,47
1928,00;97,47
1927,00;97,48
1926,00;97,51
1925,00;97,53
1924,00;97,52
1923,00;97,51
1922,00;97,50
1921,00;97,49
1920,00;97,47
1919,00;97,48
1918,00;97,52
1917,00;97,56
1916,00;97,57
1915,00;97,56
1914,00;97,56
1913,00;97,55
1912,00;97,52
1911,00;97,49
1910,00;97,47
1909,00;97,48
1908,00;97,51
1907,00;97,56
1906,00;97,59
1905,00;97,60
1904,00;97,57
1903,00;97,54
1902,00;97,53
1901,00;97,55
1900,00;97,58
1899,00;97,62
1898,00;97,64
1897,00;97,64
1896,00;97,61
1895,00;97,58
1894,00;97,56
1893,00;97,56
1892,00;97,55
1891,00;97,55
1890,00;97,55
1889,00;97,56
1888,00;97,56
1887,00;97,55
1886,00;97,54
1885,00;97,55
1884,00;97,57
1883,00;97,59
1882,00;97,61
1881,00;97,61
1880,00;97,59
1879,00;97,56
1878,00;97,55
1877,00;97,55
1876,00;97,55
1875,00;97,55
1874,00;97,56
1873,00;97,57
1872,00;97,55
1871,00;97,55
1870,00;97,56
1869,00;97,57
1868,00;97,56
1867,00;97,56
1866,00;97,56
1865,00;97,56
1864,00;97,55
1863,00;97,55
1862,00;97,57
1861,00;97,58
1860,00;97,58
1859,00;97,58
1858,00;97,56
1857,00;97,54
1856,00;97,52
1855,00;97,50
1854,00;97,50
1853,00;97,49
1852,00;97,47
1851,00;97,46
1850,00;97,46
1849,00;97,46
1848,00;97,46
1847,00;97,46
1846,00;97,46
1845,00;97,47
1844,00;97,48
1843,00;97,48
1842,00;97,48
1841,00;97,47
1840,00;97,44
1839,00;97,42
1838,00;97,42
1837,00;97,42
1836,00;97,41
1835,00;97,39
1834,00;97,39
1833,00;97,39
1832,00;97,39
1831,00;97,40
1830,00;97,43
1829,00;97,45
1828,00;97,42
1827,00;97,38
1826,00;97,35
1825,00;97,32
1824,00;97,31
1823,00;97,31
1822,00;97,32
1821,00;97,32
1820,00;97,31
1819,00;97,29
1818,00;97,27
1817,00;97,24
1816,00;97,22
1815,00;97,20
1814,00;97,19
1813,00;97,19
1812,00;97,18
1811,00;97,16
1810,00;97,16
1809,00;97,15
1808,00;97,15
1807,00;97,14
1806,00;97,14
1805,00;97,12
1804,00;97,08
1803,00;97,03
1802,00;97,01
1801,00;97,02
1800,00;97,02
1799,00;97,02
1798,00;96,99
1797,00;96,96
1796,00;96,92
1795,00;96,90
1794,00;96,90
1793,00;96,91
1792,00;96,91
1791,00;96,90
1790,00;96,89
1789,00;96,86
1788,00;96,82
1787,00;96,79
1786,00;96,77
1785,00;96,75
1784,00;96,72
1783,00;96,70
1782,00;96,69
1781,00;96,67
1780,00;96,65
1779,00;96,61
1778,00;96,58
1777,00;96,56
1776,00;96,53
1775,00;96,50
1774,00;96,50
1773,00;96,51
1772,00;96,51
1771,00;96,50
1770,00;96,47
1769,00;96,41
1768,00;96,35
1767,00;96,32
1766,00;96,32
1765,00;96,31
1764,00;96,27
1763,00;96,23
1762,00;96,21
1761,00;96,19
1760,00;96,15
1759,00;96,12
1758,00;96,09
1757,00;96,07
1756,00;96,05
1755,00;96,03
1754,00;96,00
1753,00;95,96
1752,00;95,90
1751,00;95,85
1750,00;95,84
1749,00;95,83
1748,00;95,78
1747,00;95,72
1746,00;95,67
1745,00;95,61
1744,00;95,54
1743,00;95,47
1742,00;95,43
1741,00;95,38
1740,00;95,30
1739,00;95,20
1738,00;95,11
1737,00;95,03
1736,00;94,92
1735,00;94,76
1734,00;94,60
1733,00;94,45
1732,00;94,32
1731,00;94,21
1730,00;94,10
1729,00;93,98
1728,00;93,85
1727,00;93,73
1726,00;93,61
1725,00;93,48
1724,00;93,32
1723,00;93,16
1722,00;93,04
1721,00;92,93
1720,00;92,79
1719,00;92,61
1718,00;92,40
1717,00;92,16
1716,00;91,92
1715,00;91,72
1714,00;91,56
1713,00;91,38
1712,00;91,18
1711,00;90,96
1710,00;90,76
1709,00;90,58
1708,00;90,39
1707,00;90,18
1706,00;89,95
1705,00;89,70
1704,00;89,47
1703,00;89,27
1702,00;89,09
1701,00;88,82
1700,00;88,42
1699,00;88,09
1698,00;87,88
1697,00;87,64
1696,00;87,26
1695,00;86,87
1694,00;86,60
1693,00;86,41
1692,00;86,20
1691,00;85,93
1690,00;85,64
1689,00;85,34
1688,00;85,06
1687,00;84,82
1686,00;84,61
1685,00;84,28
1684,00;83,75
1683,00;83,26
1682,00;82,97
1681,00;82,72
1680,00;82,42
1679,00;82,14
1678,00;81,91
1677,00;81,68
1676,00;81,35
1675,00;80,93
1674,00;80,55
1673,00;80,28
1672,00;80,04
1671,00;79,74
1670,00;79,34
1669,00;78,89
1668,00;78,49
1667,00;78,19
1666,00;77,98
1665,00;77,78
1664,00;77,49
1663,00;77,10
1662,00;76,69
1661,00;76,34
1660,00;76,04
1659,00;75,77
1658,00;75,54
1657,00;75,37
1656,00;75,20
1655,00;75,01
1654,00;74,63
1653,00;73,99
1652,00;73,49
1651,00;73,33
1650,00;73,32
1649,00;73,30
1648,00;73,12
1647,00;72,74
1646,00;72,37
1645,00;72,15
1644,00;72,01
1643,00;71,91
1642,00;71,83
1641,00;71,76
1640,00;71,71
1639,00;71,68
1638,00;71,68
1637,00;71,67
1636,00;71,59
1635,00;71,51
1634,00;71,52
1633,00;71,61
1632,00;71,71
1631,00;71,83
1630,00;71,97
1629,00;72,15
1628,00;72,33
1627,00;72,51
1626,00;72,72
1625,00;72,98
1624,00;73,26
1623,00;73,56
1622,00;73,88
1621,00;74,18
1620,00;74,45
1619,00;74,71
1618,00;75,02
1617,00;75,42
1616,00;75,86
1615,00;76,25
1614,00;76,59
1613,00;76,93
1612,00;77,28
1611,00;77,63
1610,00;78,00
1609,00;78,38
1608,00;78,76
1607,00;79,11
1606,00;79,44
1605,00;79,76
1604,00;80,09
1603,00;80,41
1602,00;80,73
1601,00;81,05
1600,00;81,36
1599,00;81,65
1598,00;81,93
1597,00;82,21
1596,00;82,49
1595,00;82,76
1594,00;83,02
1593,00;83,28
1592,00;83,54
1591,00;83,78
1590,00;84,01
1589,00;84,24
1588,00;84,45
1587,00;84,65
1586,00;84,84
1585,00;85,04
1584,00;85,24
1583,00;85,43
1582,00;85,60
1581,00;85,77
1580,00;85,93
1579,00;86,07
1578,00;86,20
1577,00;86,36
1576,00;86,56
1575,00;86,75
1574,00;86,90
1573,00;87,02
1572,00;87,14
1571,00;87,26
1570,00;87,41
1569,00;87,55
1568,00;87,67
1567,00;87,76
1566,00;87,84
1565,00;87,94
1564,00;88,05
1563,00;88,13
1562,00;88,19
1561,00;88,22
1560,00;88,28
1559,00;88,37
1558,00;88,48
1557,00;88,58
1556,00;88,68
1555,00;88,75
1554,00;88,88
1553,00;88,97
1552,00;89,02
1551,00;89,09
1550,00;89,14
1549,00;89,21
1548,00;89,28
1547,00;89,33
1546,00;89,38
1545,00;89,43
1544,00;89,50
1543,00;89,60
1542,00;89,69
1541,00;89,78
1540,00;89,86
1539,00;89,88
1538,00;89,86
1537,00;89,86
1536,00;89,90
1535,00;89,95
1534,00;90,00
1533,00;90,04
1532,00;90,09
1531,00;90,12
1530,00;90,16
1529,00;90,20
1528,00;90,25
1527,00;90,29
1526,00;90,31
1525,00;90,34
1524,00;90,38
1523,00;90,41
1522,00;90,43
1521,00;90,46
1520,00;90,52
1519,00;90,58
1518,00;90,62
1517,00;90,64
1516,00;90,66
1515,00;90,67
1514,00;90,67
1513,00;90,68
1512,00;90,69
1511,00;90,70
1510,00;90,72
1509,00;90,73
1508,00;90,77
1507,00;90,83
1506,00;90,88
1505,00;90,90
1504,00;90,90
1503,00;90,92
1502,00;90,94
1501,00;90,98
1500,00;91,02
1499,00;91,06
1498,00;91,09
1497,00;91,11
1496,00;91,12
1495,00;91,13
1494,00;91,14
1493,00;91,15
1492,00;91,17
1491,00;91,17
1490,00;91,18
1489,00;91,19
1488,00;91,23
1487,00;91,26
1486,00;91,27
1485,00;91,27
1484,00;91,27
1483,00;91,28
1482,00;91,28
1481,00;91,29
1480,00;91,29
1479,00;91,30
1478,00;91,32
1477,00;91,35
1476,00;91,38
1475,00;91,41
1474,00;91,41
1473,00;91,41
1472,00;91,43
1471,00;91,44
1470,00;91,45
1469,00;91,45
1468,00;91,46
1467,00;91,48
1466,00;91,51
1465,00;91,54
1464,00;91,57
1463,00;91,58
1462,00;91,58
1461,00;91,58
1460,00;91,59
1459,00;91,60
1458,00;91,61
1457,00;91,62
1456,00;91,62
1455,00;91,62
1454,00;91,62
1453,00;91,62
1452,00;91,62
1451,00;91,63
1450,00;91,64
1449,00;91,66
1448,00;91,66
1447,00;91,67
1446,00;91,68
1445,00;91,68
1444,00;91,69
1443,00;91,69
1442,00;91,69
1441,00;91,69
1440,00;91,69
1439,00;91,69
1438,00;91,69
1437,00;91,69
1436,00;91,70
1435,00;91,72
1434,00;91,73
1433,00;91,74
1432,00;91,75
1431,00;91,76
1430,00;91,76
1429,00;91,77
1428,00;91,77
1427,00;91,78
1426,00;91,79
1425,00;91,79
1424,00;91,79
1423,00;91,78
1422,00;91,76
1421,00;91,74
1420,00;91,72
1419,00;91,73
1418,00;91,75
1417,00;91,76
1416,00;91,77
1415,00;91,78
1414,00;91,78
1413,00;91,79
1412,00;91,79
1411,00;91,79
1410,00;91,79
1409,00;91,79
1408,00;91,79
1407,00;91,79
1406,00;91,78
1405,00;91,77
1404,00;91,78
1403,00;91,80
1402,00;91,81
1401,00;91,81
1400,00;91,81
1399,00;91,81
1398,00;91,81
1397,00;91,82
1396,00;91,84
1395,00;91,85
1394,00;91,86
1393,00;91,86
1392,00;91,87
1391,00;91,88
1390,00;91,89
1389,00;91,89
1388,00;91,88
1387,00;91,89
1386,00;91,92
1385,00;91,96
1384,00;92,00
1383,00;92,03
1382,00;92,04
1381,00;92,04
1380,00;92,05
1379,00;92,07
1378,00;92,09
1377,00;92,11
1376,00;92,13
1375,00;92,13
1374,00;92,14
1373,00;92,14
1372,00;92,15
1371,00;92,15
1370,00;92,15
1369,00;92,16
1368,00;92,17
1367,00;92,19
1366,00;92,19
1365,00;92,17
1364,00;92,14
1363,00;92,11
1362,00;92,10
1361,00;92,10
1360,00;92,11
1359,00;92,11
1358,00;92,10
1357,00;92,09
1356,00;92,08
1355,00;92,08
1354,00;92,08
1353,00;92,08
1352,00;92,07
1351,00;92,06
1350,00;92,04
1349,00;92,03
1348,00;92,02
1347,00;92,01
1346,00;92,00
1345,00;91,98
1344,00;91,95
1343,00;91,93
1342,00;91,89
1341,00;91,84
1340,00;91,80
1339,00;91,78
1338,00;91,78
1337,00;91,79
1336,00;91,81
1335,00;91,82
1334,00;91,83
1333,00;91,84
1332,00;91,83
1331,00;91,82
1330,00;91,80
1329,00;91,79
1328,00;91,79
1327,00;91,80
1326,00;91,82
1325,00;91,83
1324,00;91,83
1323,00;91,82
1322,00;91,80
1321,00;91,78
1320,00;91,77
1319,00;91,77
1318,00;91,78
1317,00;91,78
1316,00;91,78
1315,00;91,77
1314,00;91,77
1313,00;91,76
1312,00;91,77
1311,00;91,77
1310,00;91,76
1309,00;91,74
1308,00;91,74
1307,00;91,74
1306,00;91,76
1305,00;91,77
1304,00;91,78
1303,00;91,79
1302,00;91,79
1301,00;91,78
1300,00;91,76
1299,00;91,74
1298,00;91,73
1297,00;91,73
1296,00;91,74
1295,00;91,76
1294,00;91,76
1293,00;91,76
1292,00;91,76
1291,00;91,76
1290,00;91,75
1289,00;91,76
1288,00;91,76
1287,00;91,76
1286,00;91,76
1285,00;91,76
1284,00;91,75
1283,00;91,75
1282,00;91,74
1281,00;91,73
1280,00;91,72
1279,00;91,72
1278,00;91,72
1277,00;91,73
1276,00;91,74
1275,00;91,74
1274,00;91,74
1273,00;91,74
1272,00;91,74
1271,00;91,74
1270,00;91,74
1269,00;91,75
1268,00;91,75
1267,00;91,75
1266,00;91,73
1265,00;91,72
1264,00;91,72
1263,00;91,73
1262,00;91,74
1261,00;91,73
1260,00;91,72
1259,00;91,72
1258,00;91,72
1257,00;91,73
1256,00;91,73
1255,00;91,73
1254,00;91,73
1253,00;91,73
1252,00;91,73
1251,00;91,73
1250,00;91,73
1249,00;91,73
1248,00;91,72
1247,00;91,73
1246,00;91,74
1245,00;91,76
1244,00;91,77
1243,00;91,77
1242,00;91,77
1241,00;91,77
1240,00;91,80
1239,00;91,83
1238,00;91,86
1237,00;91,88
1236,00;91,90
1235,00;91,92
1234,00;91,95
1233,00;91,97
1232,00;91,99
1231,00;92,02
1230,00;92,05
1229,00;92,07
1228,00;92,07
1227,00;92,05
1226,00;92,02
1225,00;91,99
1224,00;91,97
1223,00;91,96
1222,00;91,97
1221,00;92,00
1220,00;92,06
1219,00;92,12
1218,00;92,16
1217,00;92,16
1216,00;92,12
1215,00;92,08
1214,00;92,05
1213,00;92,04
1212,00;92,04
1211,00;92,04
1210,00;92,04
1209,00;92,04
1208,00;92,04
1207,00;92,05
1206,00;92,06
1205,00;92,06
1204,00;92,05
1203,00;92,03
1202,00;92,01
1201,00;91,99
1200,00;91,98
1199,00;91,96
1198,00;91,94
1197,00;91,92
1196,00;91,90
1195,00;91,89
1194,00;91,89
1193,00;91,89
1192,00;91,87
1191,00;91,85
1190,00;91,82
1189,00;91,79
1188,00;91,79
1187,00;91,79
1186,00;91,79
1185,00;91,79
1184,00;91,79
1183,00;91,80
1182,00;91,81
1181,00;91,81
1180,00;91,82
1179,00;91,83
1178,00;91,83
1177,00;91,82
1176,00;91,80
1175,00;91,78
1174,00;91,76
1173,00;91,75
1172,00;91,75
1171,00;91,75
1170,00;91,75
1169,00;91,75
1168,00;91,75
1167,00;91,75
1166,00;91,76
1165,00;91,77
1164,00;91,79
1163,00;91,79
1162,00;91,79
1161,00;91,77
1160,00;91,75
1159,00;91,74
1158,00;91,73
1157,00;91,73
1156,00;91,73
1155,00;91,74
1154,00;91,74
1153,00;91,74
1152,00;91,74
1151,00;91,75
1150,00;91,75
1149,00;91,75
1148,00;91,75
1147,00;91,74
1146,00;91,72
1145,00;91,71
1144,00;91,73
1143,00;91,75
1142,00;91,76
1141,00;91,76
1140,00;91,76
1139,00;91,76
1138,00;91,75
1137,00;91,74
1136,00;91,72
1135,00;91,70
1134,00;91,68
1133,00;91,67
1132,00;91,66
1131,00;91,65
1130,00;91,66
1129,00;91,66
1128,00;91,66
1127,00;91,65
1126,00;91,63
1125,00;91,62
1124,00;91,63
1123,00;91,67
1122,00;91,70
1121,00;91,72
1120,00;91,72
1119,00;91,69
1118,00;91,65
1117,00;91,61
1116,00;91,57
1115,00;91,55
1114,00;91,55
1113,00;91,57
1112,00;91,60
1111,00;91,62
1110,00;91,61
1109,00;91,59
1108,00;91,57
1107,00;91,55
1106,00;91,54
1105,00;91,52
1104,00;91,50
1103,00;91,48
1102,00;91,50
1101,00;91,54
1100,00;91,58
1099,00;91,60
1098,00;91,58
1097,00;91,54
1096,00;91,51
1095,00;91,48
1094,00;91,45
1093,00;91,42
1092,00;91,40
1091,00;91,40
1090,00;91,40
1089,00;91,40
1088,00;91,40
1087,00;91,40
1086,00;91,40
1085,00;91,40
1084,00;91,39
1083,00;91,39
1082,00;91,38
1081,00;91,37
1080,00;91,35
1079,00;91,33
1078,00;91,30
1077,00;91,27
1076,00;91,26
1075,00;91,25
1074,00;91,24
1073,00;91,23
1072,00;91,22
1071,00;91,21
1070,00;91,21
1069,00;91,21
1068,00;91,21
1067,00;91,22
1066,00;91,23
1065,00;91,25
1064,00;91,25
1063,00;91,23
1062,00;91,19
1061,00;91,14
1060,00;91,10
1059,00;91,08
1058,00;91,06
1057,00;91,03
1056,00;91,01
1055,00;90,99
1054,00;90,97
1053,00;90,95
1052,00;90,93
1051,00;90,93
1050,00;90,91
1049,00;90,89
1048,00;90,86
1047,00;90,84
1046,00;90,84
1045,00;90,86
1044,00;90,87
1043,00;90,86
1042,00;90,82
1041,00;90,77
1040,00;90,73
1039,00;90,71
1038,00;90,70
1037,00;90,71
1036,00;90,72
1035,00;90,73
1034,00;90,72
1033,00;90,70
1032,00;90,68
1031,00;90,65
1030,00;90,63
1029,00;90,62
1028,00;90,62
1027,00;90,62
1026,00;90,62
1025,00;90,62
1024,00;90,61
1023,00;90,59
1022,00;90,57
1021,00;90,55
1020,00;90,54
1019,00;90,53
1018,00;90,51
1017,00;90,49
1016,00;90,47
1015,00;90,44
1014,00;90,41
1013,00;90,38
1012,00;90,36
1011,00;90,35
1010,00;90,35
1009,00;90,33
1008,00;90,30
1007,00;90,26
1006,00;90,21
1005,00;90,16
1004,00;90,12
1003,00;90,09
1002,00;90,06
1001,00;90,03
1000,00;90,00
999,00;89,96
998,00;89,93
997,00;89,91
996,00;89,88
995,00;89,84
994,00;89,81
993,00;89,76
992,00;89,72
991,00;89,68
990,00;89,65
989,00;89,62
988,00;89,59
987,00;89,56
986,00;89,53
985,00;89,48
984,00;89,42
983,00;89,36
982,00;89,32
981,00;89,29
980,00;89,26
979,00;89,22
978,00;89,16
977,00;89,10
976,00;89,05
975,00;89,01
974,00;88,97
973,00;88,93
972,00;88,89
971,00;88,84
970,00;88,79
969,00;88,73
968,00;88,69
967,00;88,66
966,00;88,63
965,00;88,59
964,00;88,53
963,00;88,47
962,00;88,40
961,00;88,33
960,00;88,24
959,00;88,17
958,00;88,11
957,00;88,06
956,00;88,01
955,00;87,96
954,00;87,90
953,00;87,83
952,00;87,75
951,00;87,66
950,00;87,57
949,00;87,48
948,00;87,39
947,00;87,32
946,00;87,28
945,00;87,25
944,00;87,19
943,00;87,10
942,00;87,00
941,00;86,89
940,00;86,79
939,00;86,70
938,00;86,61
937,00;86,52
936,00;86,42
935,00;86,33
934,00;86,25
933,00;86,17
932,00;86,08
931,00;85,99
930,00;85,88
929,00;85,77
928,00;85,65
927,00;85,56
926,00;85,47
925,00;85,39
924,00;85,30
923,00;85,19
922,00;85,06
921,00;84,93
920,00;84,81
919,00;84,71
918,00;84,63
917,00;84,53
916,00;84,40
915,00;84,26
914,00;84,13
913,00;84,02
912,00;83,92
911,00;83,81
910,00;83,69
909,00;83,56
908,00;83,42
907,00;83,29
906,00;83,18
905,00;83,06
904,00;82,93
903,00;82,78
902,00;82,63
901,00;82,49
900,00;82,36
899,00;82,24
898,00;82,13
897,00;82,01
896,00;81,86
895,00;81,70
894,00;81,54
893,00;81,40
892,00;81,26
891,00;81,11
890,00;80,96
889,00;80,80
888,00;80,65
887,00;80,51
886,00;80,37
885,00;80,23
884,00;80,07
883,00;79,92
882,00;79,77
881,00;79,60
880,00;79,43
879,00;79,25
878,00;79,09
877,00;78,95
876,00;78,81
875,00;78,66
874,00;78,51
873,00;78,33
872,00;78,15
871,00;77,98
870,00;77,81
869,00;77,64
868,00;77,45
867,00;77,26
866,00;77,07
865,00;76,88
864,00;76,70
863,00;76,53
862,00;76,38
861,00;76,23
860,00;76,07
859,00;75,93
858,00;75,78
857,00;75,62
856,00;75,43
855,00;75,22
854,00;75,01
853,00;74,80
852,00;74,60
851,00;74,43
850,00;74,29
849,00;74,16
848,00;74,00
847,00;73,83
846,00;73,64
845,00;73,44
844,00;73,24
843,00;73,06
842,00;72,89
841,00;72,71
840,00;72,52
839,00;72,33
838,00;72,15
837,00;71,95
836,00;71,75
835,00;71,56
834,00;71,40
833,00;71,25
832,00;71,07
831,00;70,88
830,00;70,68
829,00;70,49
828,00;70,30
827,00;70,13
826,00;69,98
825,00;69,81
824,00;69,60
823,00;69,38
822,00;69,17
821,00;68,97
820,00;68,77
819,00;68,60
818,00;68,46
817,00;68,32
816,00;68,15
815,00;67,98
814,00;67,81
813,00;67,63
812,00;67,42
811,00;67,21
810,00;67,03
809,00;66,84
808,00;66,64
807,00;66,43
806,00;66,25
805,00;66,06
804,00;65,87
803,00;65,68
802,00;65,51
801,00;65,34
800,00;65,16
799,00;64,98
798,00;64,81
797,00;64,62
796,00;64,42
795,00;64,22
794,00;64,05
793,00;63,88
792,00;63,72
791,00;63,57
790,00;63,43
789,00;63,27
788,00;63,07
787,00;62,86
786,00;62,66
785,00;62,47
784,00;62,28
783,00;62,10
782,00;61,95
781,00;61,79
780,00;61,60
779,00;61,42
778,00;61,25
777,00;61,06
776,00;60,84
775,00;60,63
774,00;60,46
773,00;60,29
772,00;60,12
771,00;59,96
770,00;59,81
769,00;59,66
768,00;59,47
767,00;59,29
766,00;59,11
765,00;58,92
764,00;58,70
763,00;58,49
762,00;58,32
761,00;58,15
760,00;57,98
759,00;57,81
758,00;57,66
757,00;57,50
756,00;57,32
755,00;57,14
754,00;56,98
753,00;56,82
752,00;56,64
751,00;56,46
750,00;56,32
749,00;56,15
748,00;55,96
747,00;55,77
746,00;55,59
745,00;55,42
744,00;55,24
743,00;55,06
742,00;54,88
741,00;54,71
740,00;54,53
739,00;54,36
738,00;54,22
737,00;54,06
736,00;53,88
735,00;53,72
734,00;53,59
733,00;53,46
732,00;53,29
731,00;53,12
730,00;52,97
729,00;52,82
728,00;52,62
727,00;52,43
726,00;52,27
725,00;52,12
724,00;51,95
723,00;51,76
722,00;51,58
721,00;51,39
720,00;51,20
719,00;51,04
718,00;50,91
717,00;50,74
716,00;50,55
715,00;50,36
714,00;50,22
713,00;50,10
712,00;49,96
711,00;49,83
710,00;49,71
709,00;49,56
708,00;49,37
707,00;49,19
706,00;49,06
705,00;48,93
704,00;48,77
703,00;48,61
702,00;48,45
701,00;48,28
700,00;48,09
699,00;47,92
698,00;47,81
697,00;47,69
696,00;47,54
695,00;47,39
694,00;47,28
693,00;47,18
692,00;47,03
691,00;46,88
690,00;46,75
689,00;46,60
688,00;46,40
687,00;46,19
686,00;46,03
685,00;45,88
684,00;45,74
683,00;45,62
682,00;45,52
681,00;45,37
680,00;45,18
679,00;45,04
678,00;44,97
677,00;44,88
676,00;44,72
675,00;44,56
674,00;44,44
673,00;44,32
672,00;44,17
671,00;44,07
670,00;44,05
669,00;43,97
668,00;43,66
667,00;43,35
666,00;43,23
665,00;43,16
664,00;43,06
663,00;43,00
662,00;42,98
661,00;42,92
660,00;42,78
659,00;42,65
658,00;42,58
657,00;42,46
656,00;42,26
655,00;42,09
654,00;42,04
653,00;42,01
652,00;41,92
651,00;41,83
650,00;41,77
649,00;41,63
648,00;41,38
647,00;41,22
646,00;41,24
645,00;41,23
644,00;41,06
643,00;40,84
642,00;40,75
641,00;40,68
640,00;40,54
639,00;40,41
638,00;40,39
637,00;40,32
636,00;40,13
635,00;40,04
634,00;40,21
633,00;40,43
632,00;40,40
631,00;40,14
630,00;39,82
629,00;39,50
628,00;39,21
627,00;39,08
626,00;39,09
625,00;38,95
624,00;38,62
623,00;38,51
622,00;38,77
621,00;39,01
620,00;38,90
619,00;38,70
618,00;38,69
617,00;38,63
616,00;38,31
615,00;38,08
614,00;38,15
613,00;38,16
612,00;37,90
611,00;37,67
610,00;37,66
609,00;37,49
608,00;37,01
607,00;36,68
606,00;36,79
605,00;37,00
604,00;37,05
603,00;37,18
602,00;37,46
601,00;37,44
600,00;36,98
