Created as New Dataset;Sample 007 By Administrator Date maandag, maart 02 2026
cm-1;%T
4000,00;98,84
3999,00;98,83
3998,00;98,81
3997,00;98,79
3996,00;98,78
3995,00;98,80
3994,00;98,83
3993,00;98,86
3992,00;98,88
3991,00;98,89
3990,00;98,89
3989,00;98,90
3988,00;98,90
3987,00;98,90
3986,00;98,90
3985,00;98,89
3984,00;98,88
3983,00;98,88
3982,00;98,86
3981,00;98,85
3980,00;98,83
3979,00;98,83
3978,00;98,82
3977,00;98,82
3976,00;98,82
3975,00;98,83
3974,00;98,85
3973,00;98,86
3972,00;98,87
3971,00;98,88
3970,00;98,89
3969,00;98,90
3968,00;98,91
3967,00;98,91
3966,00;98,91
3965,00;98,90
3964,00;98,89
3963,00;98,88
3962,00;98,87
3961,00;98,87
3960,00;98,87
3959,00;98,86
3958,00;98,86
3957,00;98,85
3956,00;98,86
3955,00;98,87
3954,00;98,88
3953,00;98,88
3952,00;98,87
3951,00;98,87
3950,00;98,87
3949,00;98,87
3948,00;98,88
3947,00;98,90
3946,00;98,91
3945,00;98,93
3944,00;98,94
3943,00;98,94
3942,00;98,93
3941,00;98,90
3940,00;98,88
3939,00;98,87
3938,00;98,86
3937,00;98,87
3936,00;98,87
3935,00;98,87
3934,00;98,87
3933,00;98,86
3932,00;98,87
3931,00;98,89
3930,00;98,91
3929,00;98,92
3928,00;98,91
3927,00;98,89
3926,00;98,86
3925,00;98,85
3924,00;98,84
3923,00;98,85
3922,00;98,87
3921,00;98,87
3920,00;98,88
3919,00;98,88
3918,00;98,89
3917,00;98,91
3916,00;98,92
3915,00;98,93
3914,00;98,94
3913,00;98,93
3912,00;98,92
3911,00;98,91
3910,00;98,90
3909,00;98,91
3908,00;98,90
3907,00;98,89
3906,00;98,86
3905,00;98,84
3904,00;98,83
3903,00;98,84
3902,00;98,85
3901,00;98,87
3900,00;98,88
3899,00;98,89
3898,00;98,89
3897,00;98,89
3896,00;98,88
3895,00;98,87
3894,00;98,86
3893,00;98,87
3892,00;98,89
3891,00;98,90
3890,00;98,90
3889,00;98,89
3888,00;98,88
3887,00;98,89
3886,00;98,90
3885,00;98,91
3884,00;98,91
3883,00;98,92
3882,00;98,93
3881,00;98,94
3880,00;98,93
3879,00;98,92
3878,00;98,90
3877,00;98,89
3876,00;98,89
3875,00;98,89
3874,00;98,90
3873,00;98,91
3872,00;98,93
3871,00;98,94
3870,00;98,93
3869,00;98,90
3868,00;98,87
3867,00;98,87
3866,00;98,86
3865,00;98,85
3864,00;98,85
3863,00;98,86
3862,00;98,87
3861,00;98,87
3860,00;98,88
3859,00;98,88
3858,00;98,89
3857,00;98,89
3856,00;98,91
3855,00;98,94
3854,00;98,97
3853,00;98,99
3852,00;98,99
3851,00;98,98
3850,00;98,97
3849,00;98,95
3848,00;98,93
3847,00;98,90
3846,00;98,89
3845,00;98,88
3844,00;98,88
3843,00;98,89
3842,00;98,89
3841,00;98,89
3840,00;98,89
3839,00;98,89
3838,00;98,90
3837,00;98,91
3836,00;98,93
3835,00;98,94
3834,00;98,93
3833,00;98,90
3832,00;98,88
3831,00;98,85
3830,00;98,84
3829,00;98,84
3828,00;98,85
3827,00;98,86
3826,00;98,87
3825,00;98,86
3824,00;98,85
3823,00;98,84
3822,00;98,82
3821,00;98,81
3820,00;98,83
3819,00;98,88
3818,00;98,93
3817,00;98,96
3816,00;98,96
3815,00;98,94
3814,00;98,93
3813,00;98,93
3812,00;98,92
3811,00;98,90
3810,00;98,87
3809,00;98,86
3808,00;98,87
3807,00;98,87
3806,00;98,87
3805,00;98,87
3804,00;98,88
3803,00;98,88
3802,00;98,87
3801,00;98,84
3800,00;98,82
3799,00;98,82
3798,00;98,83
3797,00;98,84
3796,00;98,86
3795,00;98,85
3794,00;98,84
3793,00;98,82
3792,00;98,81
3791,00;98,81
3790,00;98,81
3789,00;98,80
3788,00;98,80
3787,00;98,80
3786,00;98,81
3785,00;98,82
3784,00;98,82
3783,00;98,81
3782,00;98,80
3781,00;98,80
3780,00;98,79
3779,00;98,77
3778,00;98,76
3777,00;98,74
3776,00;98,73
3775,00;98,71
3774,00;98,69
3773,00;98,67
3772,00;98,66
3771,00;98,67
3770,00;98,70
3769,00;98,74
3768,00;98,76
3767,00;98,76
3766,00;98,75
3765,00;98,72
3764,00;98,70
3763,00;98,69
3762,00;98,69
3761,00;98,70
3760,00;98,69
3759,00;98,69
3758,00;98,68
3757,00;98,67
3756,00;98,66
3755,00;98,64
3754,00;98,63
3753,00;98,61
3752,00;98,59
3751,00;98,58
3750,00;98,58
3749,00;98,57
3748,00;98,56
3747,00;98,55
3746,00;98,55
3745,00;98,56
3744,00;98,55
3743,00;98,53
3742,00;98,52
3741,00;98,52
3740,00;98,51
3739,00;98,49
3738,00;98,47
3737,00;98,46
3736,00;98,43
3735,00;98,41
3734,00;98,41
3733,00;98,42
3732,00;98,42
3731,00;98,40
3730,00;98,38
3729,00;98,37
3728,00;98,36
3727,00;98,37
3726,00;98,37
3725,00;98,36
3724,00;98,35
3723,00;98,33
3722,00;98,31
3721,00;98,29
3720,00;98,28
3719,00;98,27
3718,00;98,26
3717,00;98,24
3716,00;98,22
3715,00;98,19
3714,00;98,15
3713,00;98,10
3712,00;98,05
3711,00;98,02
3710,00;98,00
3709,00;97,98
3708,00;97,95
3707,00;97,92
3706,00;97,89
3705,00;97,85
3704,00;97,82
3703,00;97,77
3702,00;97,71
3701,00;97,65
3700,00;97,59
3699,00;97,55
3698,00;97,51
3697,00;97,45
3696,00;97,39
3695,00;97,33
3694,00;97,27
3693,00;97,22
3692,00;97,16
3691,00;97,10
3690,00;97,02
3689,00;96,91
3688,00;96,80
3687,00;96,69
3686,00;96,60
3685,00;96,51
3684,00;96,43
3683,00;96,34
3682,00;96,25
3681,00;96,17
3680,00;96,10
3679,00;96,04
3678,00;95,98
3677,00;95,87
3676,00;95,67
3675,00;95,45
3674,00;95,28
3673,00;95,20
3672,00;95,11
3671,00;94,97
3670,00;94,77
3669,00;94,58
3668,00;94,45
3667,00;94,35
3666,00;94,25
3665,00;94,14
3664,00;93,99
3663,00;93,84
3662,00;93,69
3661,00;93,55
3660,00;93,41
3659,00;93,29
3658,00;93,14
3657,00;92,97
3656,00;92,79
3655,00;92,65
3654,00;92,55
3653,00;92,48
3652,00;92,40
3651,00;92,25
3650,00;92,02
3649,00;91,77
3648,00;91,56
3647,00;91,37
3646,00;91,22
3645,00;91,10
3644,00;90,99
3643,00;90,89
3642,00;90,78
3641,00;90,66
3640,00;90,53
3639,00;90,38
3638,00;90,23
3637,00;90,09
3636,00;89,95
3635,00;89,82
3634,00;89,68
3633,00;89,53
3632,00;89,41
3631,00;89,28
3630,00;89,10
3629,00;88,87
3628,00;88,66
3627,00;88,52
3626,00;88,43
3625,00;88,34
3624,00;88,23
3623,00;88,12
3622,00;88,02
3621,00;87,92
3620,00;87,80
3619,00;87,66
3618,00;87,51
3617,00;87,37
3616,00;87,22
3615,00;87,06
3614,00;86,88
3613,00;86,69
3612,00;86,53
3611,00;86,41
3610,00;86,30
3609,00;86,18
3608,00;86,04
3607,00;85,89
3606,00;85,76
3605,00;85,66
3604,00;85,55
3603,00;85,44
3602,00;85,30
3601,00;85,15
3600,00;85,00
3599,00;84,88
3598,00;84,77
3597,00;84,66
3596,00;84,51
3595,00;84,32
3594,00;84,12
3593,00;83,94
3592,00;83,81
3591,00;83,71
3590,00;83,61
3589,00;83,47
3588,00;83,28
3587,00;83,06
3586,00;82,88
3585,00;82,74
3584,00;82,61
3583,00;82,50
3582,00;82,38
3581,00;82,25
3580,00;82,11
3579,00;81,96
3578,00;81,81
3577,00;81,65
3576,00;81,48
3575,00;81,32
3574,00;81,16
3573,00;81,02
3572,00;80,92
3571,00;80,83
3570,00;80,75
3569,00;80,63
3568,00;80,45
3567,00;80,20
3566,00;79,96
3565,00;79,77
3564,00;79,62
3563,00;79,48
3562,00;79,33
3561,00;79,18
3560,00;79,04
3559,00;78,90
3558,00;78,77
3557,00;78,64
3556,00;78,51
3555,00;78,36
3554,00;78,19
3553,00;78,00
3552,00;77,82
3551,00;77,67
3550,00;77,55
3549,00;77,43
3548,00;77,30
3547,00;77,13
3546,00;76,94
3545,00;76,75
3544,00;76,58
3543,00;76,43
3542,00;76,30
3541,00;76,16
3540,00;76,03
3539,00;75,88
3538,00;75,73
3537,00;75,56
3536,00;75,40
3535,00;75,26
3534,00;75,13
3533,00;75,01
3532,00;74,89
3531,00;74,75
3530,00;74,62
3529,00;74,48
3528,00;74,33
3527,00;74,18
3526,00;74,02
3525,00;73,86
3524,00;73,71
3523,00;73,56
3522,00;73,43
3521,00;73,31
3520,00;73,18
3519,00;73,04
3518,00;72,89
3517,00;72,73
3516,00;72,58
3515,00;72,46
3514,00;72,35
3513,00;72,24
3512,00;72,10
3511,00;71,94
3510,00;71,76
3509,00;71,60
3508,00;71,48
3507,00;71,37
3506,00;71,27
3505,00;71,14
3504,00;70,98
3503,00;70,81
3502,00;70,65
3501,00;70,51
3500,00;70,39
3499,00;70,29
3498,00;70,18
3497,00;70,06
3496,00;69,92
3495,00;69,78
3494,00;69,65
3493,00;69,53
3492,00;69,41
3491,00;69,29
3490,00;69,18
3489,00;69,04
3488,00;68,90
3487,00;68,76
3486,00;68,63
3485,00;68,51
3484,00;68,39
3483,00;68,27
3482,00;68,13
3481,00;67,97
3480,00;67,83
3479,00;67,70
3478,00;67,59
3477,00;67,48
3476,00;67,37
3475,00;67,26
3474,00;67,13
3473,00;67,00
3472,00;66,85
3471,00;66,70
3470,00;66,57
3469,00;66,44
3468,00;66,32
3467,00;66,20
3466,00;66,08
3465,00;65,96
3464,00;65,84
3463,00;65,70
3462,00;65,56
3461,00;65,43
3460,00;65,30
3459,00;65,18
3458,00;65,07
3457,00;64,96
3456,00;64,85
3455,00;64,73
3454,00;64,61
3453,00;64,48
3452,00;64,35
3451,00;64,23
3450,00;64,11
3449,00;63,98
3448,00;63,84
3447,00;63,69
3446,00;63,56
3445,00;63,45
3444,00;63,36
3443,00;63,26
3442,00;63,15
3441,00;63,02
3440,00;62,88
3439,00;62,74
3438,00;62,62
3437,00;62,50
3436,00;62,40
3435,00;62,30
3434,00;62,20
3433,00;62,09
3432,00;61,97
3431,00;61,85
3430,00;61,74
3429,00;61,64
3428,00;61,54
3427,00;61,45
3426,00;61,35
3425,00;61,25
3424,00;61,15
3423,00;61,04
3422,00;60,92
3421,00;60,82
3420,00;60,72
3419,00;60,63
3418,00;60,55
3417,00;60,47
3416,00;60,38
3415,00;60,29
3414,00;60,20
3413,00;60,11
3412,00;60,02
3411,00;59,94
3410,00;59,86
3409,00;59,77
3408,00;59,68
3407,00;59,60
3406,00;59,53
3405,00;59,46
3404,00;59,39
3403,00;59,31
3402,00;59,22
3401,00;59,14
3400,00;59,08
3399,00;59,03
3398,00;58,98
3397,00;58,94
3396,00;58,89
3395,00;58,85
3394,00;58,81
3393,00;58,77
3392,00;58,71
3391,00;58,66
3390,00;58,60
3389,00;58,55
3388,00;58,52
3387,00;58,50
3386,00;58,46
3385,00;58,42
3384,00;58,37
3383,00;58,33
3382,00;58,32
3381,00;58,32
3380,00;58,31
3379,00;58,30
3378,00;58,28
3377,00;58,26
3376,00;58,23
3375,00;58,23
3374,00;58,23
3373,00;58,24
3372,00;58,25
3371,00;58,24
3370,00;58,23
3369,00;58,22
3368,00;58,22
3367,00;58,24
3366,00;58,25
3365,00;58,27
3364,00;58,29
3363,00;58,31
3362,00;58,31
3361,00;58,31
3360,00;58,31
3359,00;58,32
3358,00;58,35
3357,00;58,37
3356,00;58,40
3355,00;58,43
3354,00;58,45
3353,00;58,47
3352,00;58,48
3351,00;58,50
3350,00;58,52
3349,00;58,55
3348,00;58,58
3347,00;58,60
3346,00;58,63
3345,00;58,67
3344,00;58,70
3343,00;58,73
3342,00;58,76
3341,00;58,78
3340,00;58,82
3339,00;58,86
3338,00;58,90
3337,00;58,93
3336,00;58,96
3335,00;59,00
3334,00;59,04
3333,00;59,08
3332,00;59,12
3331,00;59,15
3330,00;59,18
3329,00;59,23
3328,00;59,28
3327,00;59,32
3326,00;59,36
3325,00;59,38
3324,00;59,40
3323,00;59,41
3322,00;59,43
3321,00;59,46
3320,00;59,50
3319,00;59,54
3318,00;59,59
3317,00;59,63
3316,00;59,68
3315,00;59,71
3314,00;59,75
3313,00;59,78
3312,00;59,80
3311,00;59,83
3310,00;59,85
3309,00;59,87
3308,00;59,89
3307,00;59,91
3306,00;59,94
3305,00;59,96
3304,00;59,98
3303,00;60,00
3302,00;60,04
3301,00;60,08
3300,00;60,13
3299,00;60,16
3298,00;60,19
3297,00;60,22
3296,00;60,25
3295,00;60,27
3294,00;60,29
3293,00;60,30
3292,00;60,32
3291,00;60,35
3290,00;60,38
3289,00;60,40
3288,00;60,42
3287,00;60,44
3286,00;60,47
3285,00;60,49
3284,00;60,52
3283,00;60,55
3282,00;60,58
3281,00;60,61
3280,00;60,64
3279,00;60,66
3278,00;60,68
3277,00;60,69
3276,00;60,72
3275,00;60,75
3274,00;60,79
3273,00;60,83
3272,00;60,86
3271,00;60,90
3270,00;60,93
3269,00;60,96
3268,00;60,99
3267,00;61,02
3266,00;61,06
3265,00;61,10
3264,00;61,14
3263,00;61,18
3262,00;61,23
3261,00;61,26
3260,00;61,30
3259,00;61,33
3258,00;61,36
3257,00;61,41
3256,00;61,46
3255,00;61,52
3254,00;61,58
3253,00;61,63
3252,00;61,69
3251,00;61,74
3250,00;61,79
3249,00;61,83
3248,00;61,88
3247,00;61,93
3246,00;62,00
3245,00;62,07
3244,00;62,15
3243,00;62,22
3242,00;62,31
3241,00;62,39
3240,00;62,47
3239,00;62,54
3238,00;62,60
3237,00;62,66
3236,00;62,73
3235,00;62,81
3234,00;62,90
3233,00;62,99
3232,00;63,09
3231,00;63,18
3230,00;63,26
3229,00;63,35
3228,00;63,44
3227,00;63,54
3226,00;63,64
3225,00;63,74
3224,00;63,85
3223,00;63,96
3222,00;64,08
3221,00;64,21
3220,00;64,33
3219,00;64,44
3218,00;64,55
3217,00;64,65
3216,00;64,76
3215,00;64,87
3214,00;64,99
3213,00;65,11
3212,00;65,25
3211,00;65,39
3210,00;65,53
3209,00;65,67
3208,00;65,81
3207,00;65,94
3206,00;66,07
3205,00;66,21
3204,00;66,35
3203,00;66,49
3202,00;66,63
3201,00;66,77
3200,00;66,93
3199,00;67,09
3198,00;67,25
3197,00;67,40
3196,00;67,53
3195,00;67,67
3194,00;67,80
3193,00;67,93
3192,00;68,08
3191,00;68,23
3190,00;68,39
3189,00;68,55
3188,00;68,72
3187,00;68,89
3186,00;69,06
3185,00;69,22
3184,00;69,39
3183,00;69,56
3182,00;69,73
3181,00;69,91
3180,00;70,10
3179,00;70,28
3178,00;70,45
3177,00;70,62
3176,00;70,77
3175,00;70,93
3174,00;71,10
3173,00;71,27
3172,00;71,44
3171,00;71,61
3170,00;71,78
3169,00;71,96
3168,00;72,14
3167,00;72,32
3166,00;72,49
3165,00;72,65
3164,00;72,82
3163,00;72,99
3162,00;73,15
3161,00;73,32
3160,00;73,49
3159,00;73,66
3158,00;73,83
3157,00;74,00
3156,00;74,16
3155,00;74,32
3154,00;74,50
3153,00;74,67
3152,00;74,86
3151,00;75,04
3150,00;75,22
3149,00;75,39
3148,00;75,57
3147,00;75,74
3146,00;75,91
3145,00;76,09
3144,00;76,26
3143,00;76,43
3142,00;76,60
3141,00;76,76
3140,00;76,93
3139,00;77,11
3138,00;77,28
3137,00;77,44
3136,00;77,60
3135,00;77,76
3134,00;77,92
3133,00;78,09
3132,00;78,26
3131,00;78,43
3130,00;78,59
3129,00;78,75
3128,00;78,90
3127,00;79,06
3126,00;79,21
3125,00;79,37
3124,00;79,53
3123,00;79,68
3122,00;79,83
3121,00;79,98
3120,00;80,14
3119,00;80,30
3118,00;80,46
3117,00;80,61
3116,00;80,77
3115,00;80,92
3114,00;81,07
3113,00;81,22
3112,00;81,37
3111,00;81,52
3110,00;81,66
3109,00;81,80
3108,00;81,93
3107,00;82,07
3106,00;82,22
3105,00;82,38
3104,00;82,54
3103,00;82,69
3102,00;82,83
3101,00;82,97
3100,00;83,11
3099,00;83,25
3098,00;83,38
3097,00;83,52
3096,00;83,67
3095,00;83,81
3094,00;83,95
3093,00;84,09
3092,00;84,21
3091,00;84,32
3090,00;84,43
3089,00;84,55
3088,00;84,69
3087,00;84,82
3086,00;84,95
3085,00;85,07
3084,00;85,18
3083,00;85,30
3082,00;85,43
3081,00;85,56
3080,00;85,68
3079,00;85,80
3078,00;85,93
3077,00;86,05
3076,00;86,17
3075,00;86,29
3074,00;86,42
3073,00;86,54
3072,00;86,67
3071,00;86,79
3070,00;86,91
3069,00;87,03
3068,00;87,14
3067,00;87,24
3066,00;87,34
3065,00;87,44
3064,00;87,54
3063,00;87,65
3062,00;87,76
3061,00;87,87
3060,00;87,97
3059,00;88,06
3058,00;88,14
3057,00;88,23
3056,00;88,32
3055,00;88,41
3054,00;88,52
3053,00;88,64
3052,00;88,75
3051,00;88,86
3050,00;88,95
3049,00;89,04
3048,00;89,12
3047,00;89,20
3046,00;89,29
3045,00;89,38
3044,00;89,48
3043,00;89,58
3042,00;89,67
3041,00;89,76
3040,00;89,85
3039,00;89,94
3038,00;90,03
3037,00;90,12
3036,00;90,20
3035,00;90,28
3034,00;90,36
3033,00;90,44
3032,00;90,51
3031,00;90,57
3030,00;90,64
3029,00;90,70
3028,00;90,77
3027,00;90,84
3026,00;90,91
3025,00;90,98
3024,00;91,04
3023,00;91,11
3022,00;91,17
3021,00;91,22
3020,00;91,26
3019,00;91,30
3018,00;91,34
3017,00;91,38
3016,00;91,42
3015,00;91,47
3014,00;91,52
3013,00;91,57
3012,00;91,63
3011,00;91,69
3010,00;91,76
3009,00;91,83
3008,00;91,91
3007,00;91,99
3006,00;92,06
3005,00;92,14
3004,00;92,23
3003,00;92,34
3002,00;92,44
3001,00;92,54
3000,00;92,61
2999,00;92,69
2998,00;92,76
2997,00;92,85
2996,00;92,93
2995,00;93,02
2994,00;93,11
2993,00;93,18
2992,00;93,25
2991,00;93,30
2990,00;93,36
2989,00;93,42
2988,00;93,48
2987,00;93,53
2986,00;93,59
2985,00;93,65
2984,00;93,71
2983,00;93,77
2982,00;93,83
2981,00;93,89
2980,00;93,93
2979,00;93,99
2978,00;94,05
2977,00;94,11
2976,00;94,18
2975,00;94,25
2974,00;94,32
2973,00;94,41
2972,00;94,50
2971,00;94,58
2970,00;94,63
2969,00;94,66
2968,00;94,68
2967,00;94,71
2966,00;94,74
2965,00;94,78
2964,00;94,81
2963,00;94,84
2962,00;94,88
2961,00;94,93
2960,00;94,97
2959,00;95,02
2958,00;95,07
2957,00;95,12
2956,00;95,17
2955,00;95,22
2954,00;95,27
2953,00;95,32
2952,00;95,36
2951,00;95,40
2950,00;95,43
2949,00;95,46
2948,00;95,50
2947,00;95,54
2946,00;95,59
2945,00;95,63
2944,00;95,67
2943,00;95,70
2942,00;95,73
2941,00;95,75
2940,00;95,79
2939,00;95,83
2938,00;95,87
2937,00;95,90
2936,00;95,92
2935,00;95,93
2934,00;95,95
2933,00;95,97
2932,00;96,00
2931,00;96,03
2930,00;96,06
2929,00;96,10
2928,00;96,15
2927,00;96,19
2926,00;96,24
2925,00;96,28
2924,00;96,31
2923,00;96,35
2922,00;96,38
2921,00;96,40
2920,00;96,42
2919,00;96,45
2918,00;96,47
2917,00;96,50
2916,00;96,54
2915,00;96,58
2914,00;96,62
2913,00;96,66
2912,00;96,70
2911,00;96,72
2910,00;96,75
2909,00;96,76
2908,00;96,78
2907,00;96,79
2906,00;96,80
2905,00;96,81
2904,00;96,83
2903,00;96,85
2902,00;96,89
2901,00;96,93
2900,00;96,97
2899,00;97,00
2898,00;97,03
2897,00;97,05
2896,00;97,07
2895,00;97,10
2894,00;97,13
2893,00;97,16
2892,00;97,18
2891,00;97,19
2890,00;97,20
2889,00;97,21
2888,00;97,23
2887,00;97,26
2886,00;97,28
2885,00;97,30
2884,00;97,31
2883,00;97,32
2882,00;97,34
2881,00;97,37
2880,00;97,39
2879,00;97,41
2878,00;97,44
2877,00;97,46
2876,00;97,48
2875,00;97,49
2874,00;97,50
2873,00;97,52
2872,00;97,54
2871,00;97,56
2870,00;97,59
2869,00;97,61
2868,00;97,64
2867,00;97,66
2866,00;97,67
2865,00;97,69
2864,00;97,70
2863,00;97,72
2862,00;97,75
2861,00;97,78
2860,00;97,80
2859,00;97,82
2858,00;97,83
2857,00;97,85
2856,00;97,87
2855,00;97,89
2854,00;97,91
2853,00;97,93
2852,00;97,93
2851,00;97,94
2850,00;97,96
2849,00;97,98
2848,00;97,99
2847,00;98,00
2846,00;98,00
2845,00;98,00
2844,00;98,00
2843,00;98,00
2842,00;98,01
2841,00;98,03
2840,00;98,05
2839,00;98,08
2838,00;98,10
2837,00;98,11
2836,00;98,12
2835,00;98,12
2834,00;98,12
2833,00;98,13
2832,00;98,13
2831,00;98,13
2830,00;98,15
2829,00;98,16
2828,00;98,18
2827,00;98,20
2826,00;98,21
2825,00;98,21
2824,00;98,21
2823,00;98,21
2822,00;98,22
2821,00;98,23
2820,00;98,25
2819,00;98,27
2818,00;98,29
2817,00;98,31
2816,00;98,32
2815,00;98,34
2814,00;98,35
2813,00;98,36
2812,00;98,37
2811,00;98,36
2810,00;98,37
2809,00;98,37
2808,00;98,38
2807,00;98,39
2806,00;98,41
2805,00;98,41
2804,00;98,42
2803,00;98,42
2802,00;98,42
2801,00;98,43
2800,00;98,43
2799,00;98,44
2798,00;98,45
2797,00;98,47
2796,00;98,48
2795,00;98,48
2794,00;98,49
2793,00;98,49
2792,00;98,50
2791,00;98,52
2790,00;98,53
2789,00;98,55
2788,00;98,56
2787,00;98,56
2786,00;98,56
2785,00;98,56
2784,00;98,56
2783,00;98,56
2782,00;98,56
2781,00;98,56
2780,00;98,55
2779,00;98,55
2778,00;98,56
2777,00;98,57
2776,00;98,59
2775,00;98,60
2774,00;98,61
2773,00;98,61
2772,00;98,61
2771,00;98,62
2770,00;98,62
2769,00;98,62
2768,00;98,63
2767,00;98,64
2766,00;98,65
2765,00;98,66
2764,00;98,66
2763,00;98,67
2762,00;98,68
2761,00;98,70
2760,00;98,71
2759,00;98,71
2758,00;98,72
2757,00;98,72
2756,00;98,72
2755,00;98,73
2754,00;98,74
2753,00;98,75
2752,00;98,75
2751,00;98,76
2750,00;98,77
2749,00;98,78
2748,00;98,79
2747,00;98,81
2746,00;98,82
2745,00;98,83
2744,00;98,84
2743,00;98,83
2742,00;98,83
2741,00;98,83
2740,00;98,83
2739,00;98,83
2738,00;98,83
2737,00;98,84
2736,00;98,84
2735,00;98,85
2734,00;98,86
2733,00;98,88
2732,00;98,88
2731,00;98,89
2730,00;98,89
2729,00;98,89
2728,00;98,89
2727,00;98,90
2726,00;98,91
2725,00;98,91
2724,00;98,91
2723,00;98,90
2722,00;98,89
2721,00;98,89
2720,00;98,90
2719,00;98,91
2718,00;98,93
2717,00;98,94
2716,00;98,95
2715,00;98,96
2714,00;98,98
2713,00;98,99
2712,00;98,99
2711,00;99,00
2710,00;98,99
2709,00;98,98
2708,00;98,97
2707,00;98,97
2706,00;98,97
2705,00;98,98
2704,00;98,99
2703,00;99,00
2702,00;99,00
2701,00;99,00
2700,00;99,00
2699,00;99,00
2698,00;99,01
2697,00;99,02
2696,00;99,02
2695,00;99,01
2694,00;99,01
2693,00;99,00
2692,00;99,00
2691,00;99,00
2690,00;99,01
2689,00;99,02
2688,00;99,03
2687,00;99,03
2686,00;99,03
2685,00;99,02
2684,00;99,02
2683,00;99,02
2682,00;99,03
2681,00;99,04
2680,00;99,06
2679,00;99,06
2678,00;99,06
2677,00;99,05
2676,00;99,05
2675,00;99,04
2674,00;99,04
2673,00;99,03
2672,00;99,03
2671,00;99,04
2670,00;99,06
2669,00;99,06
2668,00;99,06
2667,00;99,07
2666,00;99,07
2665,00;99,07
2664,00;99,07
2663,00;99,06
2662,00;99,06
2661,00;99,06
2660,00;99,05
2659,00;99,05
2658,00;99,06
2657,00;99,07
2656,00;99,07
2655,00;99,08
2654,00;99,08
2653,00;99,07
2652,00;99,07
2651,00;99,06
2650,00;99,07
2649,00;99,09
2648,00;99,09
2647,00;99,09
2646,00;99,09
2645,00;99,09
2644,00;99,08
2643,00;99,08
2642,00;99,08
2641,00;99,09
2640,00;99,09
2639,00;99,09
2638,00;99,09
2637,00;99,09
2636,00;99,09
2635,00;99,09
2634,00;99,09
2633,00;99,09
2632,00;99,09
2631,00;99,09
2630,00;99,09
2629,00;99,10
2628,00;99,11
2627,00;99,11
2626,00;99,12
2625,00;99,12
2624,00;99,12
2623,00;99,12
2622,00;99,12
2621,00;99,10
2620,00;99,09
2619,00;99,09
2618,00;99,09
2617,00;99,10
2616,00;99,10
2615,00;99,10
2614,00;99,11
2613,00;99,12
2612,00;99,11
2611,00;99,09
2610,00;99,06
2609,00;99,04
2608,00;99,04
2607,00;99,06
2606,00;99,07
2605,00;99,07
2604,00;99,07
2603,00;99,08
2602,00;99,08
2601,00;99,08
2600,00;99,07
2599,00;99,06
2598,00;99,06
2597,00;99,06
2596,00;99,06
2595,00;99,06
2594,00;99,06
2593,00;99,06
2592,00;99,07
2591,00;99,08
2590,00;99,10
2589,00;99,12
2588,00;99,12
2587,00;99,12
2586,00;99,11
2585,00;99,10
2584,00;99,09
2583,00;99,07
2582,00;99,06
2581,00;99,05
2580,00;99,05
2579,00;99,06
2578,00;99,08
2577,00;99,10
2576,00;99,12
2575,00;99,13
2574,00;99,14
2573,00;99,14
2572,00;99,14
2571,00;99,12
2570,00;99,11
2569,00;99,11
2568,00;99,12
2567,00;99,12
2566,00;99,14
2565,00;99,14
2564,00;99,14
2563,00;99,14
2562,00;99,14
2561,00;99,14
2560,00;99,14
2559,00;99,14
2558,00;99,13
2557,00;99,12
2556,00;99,11
2555,00;99,12
2554,00;99,13
2553,00;99,13
2552,00;99,12
2551,00;99,11
2550,00;99,10
2549,00;99,09
2548,00;99,08
2547,00;99,07
2546,00;99,07
2545,00;99,07
2544,00;99,08
2543,00;99,08
2542,00;99,07
2541,00;99,06
2540,00;99,06
2539,00;99,07
2538,00;99,10
2537,00;99,12
2536,00;99,13
2535,00;99,14
2534,00;99,14
2533,00;99,14
2532,00;99,14
2531,00;99,13
2530,00;99,14
2529,00;99,14
2528,00;99,13
2527,00;99,12
2526,00;99,11
2525,00;99,11
2524,00;99,10
2523,00;99,10
2522,00;99,10
2521,00;99,10
2520,00;99,09
2519,00;99,06
2518,00;99,04
2517,00;99,03
2516,00;99,04
2515,00;99,05
2514,00;99,07
2513,00;99,07
2512,00;99,06
2511,00;99,06
2510,00;99,06
2509,00;99,05
2508,00;99,04
2507,00;99,02
2506,00;99,01
2505,00;99,01
2504,00;99,01
2503,00;99,01
2502,00;99,02
2501,00;99,02
2500,00;99,01
2499,00;99,00
2498,00;99,00
2497,00;98,99
2496,00;98,99
2495,00;98,98
2494,00;99,00
2493,00;99,02
2492,00;99,02
2491,00;99,01
2490,00;99,00
2489,00;99,00
2488,00;99,01
2487,00;99,03
2486,00;99,04
2485,00;99,04
2484,00;99,02
2483,00;98,99
2482,00;98,96
2481,00;98,94
2480,00;98,92
2479,00;98,93
2478,00;98,95
2477,00;98,97
2476,00;98,98
2475,00;98,99
2474,00;98,99
2473,00;98,98
2472,00;98,97
2471,00;98,96
2470,00;98,96
2469,00;98,97
2468,00;98,98
2467,00;98,98
2466,00;98,97
2465,00;98,96
2464,00;98,94
2463,00;98,92
2462,00;98,92
2461,00;98,92
2460,00;98,94
2459,00;98,95
2458,00;98,94
2457,00;98,92
2456,00;98,91
2455,00;98,92
2454,00;98,93
2453,00;98,93
2452,00;98,93
2451,00;98,93
2450,00;98,93
2449,00;98,93
2448,00;98,93
2447,00;98,92
2446,00;98,91
2445,00;98,89
2444,00;98,88
2443,00;98,88
2442,00;98,89
2441,00;98,90
2440,00;98,90
2439,00;98,88
2438,00;98,86
2437,00;98,84
2436,00;98,83
2435,00;98,84
2434,00;98,84
2433,00;98,85
2432,00;98,84
2431,00;98,85
2430,00;98,87
2429,00;98,88
2428,00;98,88
2427,00;98,87
2426,00;98,86
2425,00;98,85
2424,00;98,83
2423,00;98,81
2422,00;98,81
2421,00;98,81
2420,00;98,81
2419,00;98,82
2418,00;98,82
2417,00;98,82
2416,00;98,81
2415,00;98,80
2414,00;98,79
2413,00;98,79
2412,00;98,78
2411,00;98,77
2410,00;98,75
2409,00;98,73
2408,00;98,73
2407,00;98,74
2406,00;98,75
2405,00;98,76
2404,00;98,75
2403,00;98,73
2402,00;98,72
2401,00;98,72
2400,00;98,72
2399,00;98,72
2398,00;98,72
2397,00;98,72
2396,00;98,72
2395,00;98,73
2394,00;98,74
2393,00;98,75
2392,00;98,75
2391,00;98,75
2390,00;98,73
2389,00;98,71
2388,00;98,69
2387,00;98,69
2386,00;98,69
2385,00;98,70
2384,00;98,71
2383,00;98,70
2382,00;98,69
2381,00;98,67
2380,00;98,66
2379,00;98,64
2378,00;98,63
2377,00;98,61
2376,00;98,59
2375,00;98,58
2374,00;98,59
2373,00;98,60
2372,00;98,60
2371,00;98,61
2370,00;98,62
2369,00;98,61
2368,00;98,58
2367,00;98,56
2366,00;98,57
2365,00;98,57
2364,00;98,56
2363,00;98,54
2362,00;98,53
2361,00;98,53
2360,00;98,52
2359,00;98,52
2358,00;98,52
2357,00;98,50
2356,00;98,45
2355,00;98,40
2354,00;98,38
2353,00;98,41
2352,00;98,46
2351,00;98,54
2350,00;98,60
2349,00;98,58
2348,00;98,48
2347,00;98,36
2346,00;98,30
2345,00;98,31
2344,00;98,36
2343,00;98,40
2342,00;98,41
2341,00;98,40
2340,00;98,36
2339,00;98,32
2338,00;98,30
2337,00;98,31
2336,00;98,32
2335,00;98,35
2334,00;98,37
2333,00;98,36
2332,00;98,32
2331,00;98,26
2330,00;98,22
2329,00;98,21
2328,00;98,23
2327,00;98,26
2326,00;98,29
2325,00;98,29
2324,00;98,28
2323,00;98,27
2322,00;98,28
2321,00;98,30
2320,00;98,32
2319,00;98,35
2318,00;98,36
2317,00;98,34
2316,00;98,28
2315,00;98,23
2314,00;98,21
2313,00;98,20
2312,00;98,20
2311,00;98,20
2310,00;98,20
2309,00;98,19
2308,00;98,17
2307,00;98,16
2306,00;98,16
2305,00;98,17
2304,00;98,16
2303,00;98,16
2302,00;98,16
2301,00;98,15
2300,00;98,14
2299,00;98,12
2298,00;98,10
2297,00;98,10
2296,00;98,10
2295,00;98,09
2294,00;98,08
2293,00;98,06
2292,00;98,04
2291,00;98,03
2290,00;98,03
2289,00;98,02
2288,00;98,01
2287,00;98,00
2286,00;97,99
2285,00;97,98
2284,00;97,96
2283,00;97,93
2282,00;97,91
2281,00;97,89
2280,00;97,88
2279,00;97,88
2278,00;97,89
2277,00;97,90
2276,00;97,91
2275,00;97,92
2274,00;97,93
2273,00;97,93
2272,00;97,92
2271,00;97,90
2270,00;97,87
2269,00;97,83
2268,00;97,80
2267,00;97,79
2266,00;97,80
2265,00;97,80
2264,00;97,77
2263,00;97,75
2262,00;97,74
2261,00;97,75
2260,00;97,76
2259,00;97,76
2258,00;97,74
2257,00;97,71
2256,00;97,70
2255,00;97,71
2254,00;97,75
2253,00;97,79
2252,00;97,79
2251,00;97,76
2250,00;97,73
2249,00;97,70
2248,00;97,66
2247,00;97,64
2246,00;97,63
2245,00;97,62
2244,00;97,60
2243,00;97,60
2242,00;97,61
2241,00;97,60
2240,00;97,58
2239,00;97,59
2238,00;97,65
2237,00;97,73
2236,00;97,77
2235,00;97,76
2234,00;97,71
2233,00;97,66
2232,00;97,61
2231,00;97,58
2230,00;97,59
2229,00;97,59
2228,00;97,57
2227,00;97,54
2226,00;97,52
2225,00;97,51
2224,00;97,50
2223,00;97,48
2222,00;97,46
2221,00;97,44
2220,00;97,40
2219,00;97,38
2218,00;97,37
2217,00;97,38
2216,00;97,38
2215,00;97,38
2214,00;97,39
2213,00;97,40
2212,00;97,40
2211,00;97,40
2210,00;97,40
2209,00;97,38
2208,00;97,33
2207,00;97,29
2206,00;97,26
2205,00;97,24
2204,00;97,23
2203,00;97,26
2202,00;97,29
2201,00;97,32
2200,00;97,30
2199,00;97,27
2198,00;97,26
2197,00;97,27
2196,00;97,27
2195,00;97,28
2194,00;97,28
2193,00;97,26
2192,00;97,22
2191,00;97,18
2190,00;97,17
2189,00;97,17
2188,00;97,17
2187,00;97,15
2186,00;97,12
2185,00;97,08
2184,00;97,04
2183,00;97,03
2182,00;97,05
2181,00;97,07
2180,00;97,06
2179,00;97,04
2178,00;97,01
2177,00;96,98
2176,00;96,96
2175,00;96,96
2174,00;96,95
2173,00;96,92
2172,00;96,90
2171,00;96,91
2170,00;96,93
2169,00;96,92
2168,00;96,88
2167,00;96,84
2166,00;96,82
2165,00;96,80
2164,00;96,76
2163,00;96,75
2162,00;96,75
2161,00;96,76
2160,00;96,75
2159,00;96,77
2158,00;96,83
2157,00;96,87
2156,00;96,87
2155,00;96,84
2154,00;96,82
2153,00;96,81
2152,00;96,81
2151,00;96,84
2150,00;96,88
2149,00;96,91
2148,00;96,91
2147,00;96,89
2146,00;96,85
2145,00;96,79
2144,00;96,71
2143,00;96,66
2142,00;96,63
2141,00;96,63
2140,00;96,63
2139,00;96,63
2138,00;96,64
2137,00;96,64
2136,00;96,64
2135,00;96,66
2134,00;96,70
2133,00;96,73
2132,00;96,74
2131,00;96,74
2130,00;96,75
2129,00;96,73
2128,00;96,71
2127,00;96,69
2126,00;96,67
2125,00;96,64
2124,00;96,61
2123,00;96,59
2122,00;96,60
2121,00;96,63
2120,00;96,66
2119,00;96,70
2118,00;96,73
2117,00;96,74
2116,00;96,71
2115,00;96,67
2114,00;96,65
2113,00;96,64
2112,00;96,65
2111,00;96,67
2110,00;96,70
2109,00;96,70
2108,00;96,68
2107,00;96,68
2106,00;96,71
2105,00;96,74
2104,00;96,76
2103,00;96,77
2102,00;96,76
2101,00;96,74
2100,00;96,70
2099,00;96,67
2098,00;96,69
2097,00;96,72
2096,00;96,74
2095,00;96,74
2094,00;96,74
2093,00;96,73
2092,00;96,72
2091,00;96,74
2090,00;96,77
2089,00;96,80
2088,00;96,82
2087,00;96,86
2086,00;96,88
2085,00;96,88
2084,00;96,85
2083,00;96,84
2082,00;96,84
2081,00;96,85
2080,00;96,84
2079,00;96,84
2078,00;96,85
2077,00;96,85
2076,00;96,84
2075,00;96,84
2074,00;96,88
2073,00;96,94
2072,00;96,98
2071,00;97,01
2070,00;97,04
2069,00;97,04
2068,00;97,02
2067,00;97,00
2066,00;97,03
2065,00;97,06
2064,00;97,07
2063,00;97,05
2062,00;97,02
2061,00;96,98
2060,00;96,97
2059,00;96,99
2058,00;97,04
2057,00;97,10
2056,00;97,12
2055,00;97,13
2054,00;97,15
2053,00;97,16
2052,00;97,18
2051,00;97,21
2050,00;97,25
2049,00;97,27
2048,00;97,24
2047,00;97,23
2046,00;97,25
2045,00;97,27
2044,00;97,28
2043,00;97,31
2042,00;97,36
2041,00;97,42
2040,00;97,44
2039,00;97,42
2038,00;97,40
2037,00;97,35
2036,00;97,30
2035,00;97,28
2034,00;97,32
2033,00;97,37
2032,00;97,40
2031,00;97,43
2030,00;97,46
2029,00;97,47
2028,00;97,48
2027,00;97,52
2026,00;97,61
2025,00;97,68
2024,00;97,71
2023,00;97,69
2022,00;97,65
2021,00;97,58
2020,00;97,49
2019,00;97,45
2018,00;97,48
2017,00;97,50
2016,00;97,50
2015,00;97,50
2014,00;97,56
2013,00;97,63
2012,00;97,66
2011,00;97,65
2010,00;97,65
2009,00;97,66
2008,00;97,68
2007,00;97,73
2006,00;97,79
2005,00;97,82
2004,00;97,80
2003,00;97,77
2002,00;97,77
2001,00;97,79
2000,00;97,80
1999,00;97,80
1998,00;97,80
1997,00;97,79
1996,00;97,76
1995,00;97,76
1994,00;97,79
1993,00;97,80
1992,00;97,79
1991,00;97,81
1990,00;97,86
1989,00;97,93
1988,00;97,97
1987,00;98,00
1986,00;98,02
1985,00;98,02
1984,00;97,97
1983,00;97,92
1982,00;97,93
1981,00;97,98
1980,00;98,05
1979,00;98,13
1978,00;98,19
1977,00;98,19
1976,00;98,13
1975,00;98,06
1974,00;98,04
1973,00;98,03
1972,00;98,02
1971,00;98,01
1970,00;98,02
1969,00;98,04
1968,00;98,04
1967,00;98,06
1966,00;98,09
1965,00;98,11
1964,00;98,13
1963,00;98,17
1962,00;98,24
1961,00;98,28
1960,00;98,25
1959,00;98,22
1958,00;98,21
1957,00;98,20
1956,00;98,19
1955,00;98,19
1954,00;98,22
1953,00;98,25
1952,00;98,26
1951,00;98,27
1950,00;98,29
1949,00;98,31
1948,00;98,29
1947,00;98,26
1946,00;98,23
1945,00;98,19
1944,00;98,16
1943,00;98,16
1942,00;98,21
1941,00;98,25
1940,00;98,25
1939,00;98,24
1938,00;98,24
1937,00;98,23
1936,00;98,19
1935,00;98,15
1934,00;98,15
1933,00;98,18
1932,00;98,20
1931,00;98,21
1930,00;98,22
1929,00;98,23
1928,00;98,24
1927,00;98,26
1926,00;98,29
1925,00;98,31
1924,00;98,30
1923,00;98,27
1922,00;98,24
1921,00;98,21
1920,00;98,17
1919,00;98,17
1918,00;98,23
1917,00;98,29
1916,00;98,31
1915,00;98,31
1914,00;98,32
1913,00;98,31
1912,00;98,27
1911,00;98,23
1910,00;98,22
1909,00;98,23
1908,00;98,25
1907,00;98,28
1906,00;98,32
1905,00;98,34
1904,00;98,32
1903,00;98,31
1902,00;98,31
1901,00;98,32
1900,00;98,32
1899,00;98,31
1898,00;98,33
1897,00;98,34
1896,00;98,33
1895,00;98,31
1894,00;98,31
1893,00;98,31
1892,00;98,30
1891,00;98,28
1890,00;98,28
1889,00;98,27
1888,00;98,24
1887,00;98,22
1886,00;98,23
1885,00;98,23
1884,00;98,23
1883,00;98,25
1882,00;98,28
1881,00;98,29
1880,00;98,28
1879,00;98,26
1878,00;98,25
1877,00;98,25
1876,00;98,24
1875,00;98,23
1874,00;98,23
1873,00;98,23
1872,00;98,23
1871,00;98,22
1870,00;98,24
1869,00;98,25
1868,00;98,26
1867,00;98,27
1866,00;98,28
1865,00;98,28
1864,00;98,26
1863,00;98,25
1862,00;98,26
1861,00;98,27
1860,00;98,26
1859,00;98,25
1858,00;98,24
1857,00;98,22
1856,00;98,20
1855,00;98,19
1854,00;98,22
1853,00;98,24
1852,00;98,23
1851,00;98,21
1850,00;98,20
1849,00;98,18
1848,00;98,14
1847,00;98,11
1846,00;98,10
1845,00;98,09
1844,00;98,07
1843,00;98,08
1842,00;98,10
1841,00;98,10
1840,00;98,08
1839,00;98,07
1838,00;98,08
1837,00;98,08
1836,00;98,05
1835,00;98,04
1834,00;98,03
1833,00;98,02
1832,00;97,99
1831,00;97,98
1830,00;98,01
1829,00;98,03
1828,00;98,03
1827,00;98,00
1826,00;97,99
1825,00;97,98
1824,00;97,96
1823,00;97,94
1822,00;97,94
1821,00;97,94
1820,00;97,92
1819,00;97,92
1818,00;97,93
1817,00;97,93
1816,00;97,91
1815,00;97,90
1814,00;97,89
1813,00;97,89
1812,00;97,86
1811,00;97,84
1810,00;97,84
1809,00;97,84
1808,00;97,83
1807,00;97,82
1806,00;97,81
1805,00;97,80
1804,00;97,76
1803,00;97,73
1802,00;97,72
1801,00;97,71
1800,00;97,70
1799,00;97,69
1798,00;97,69
1797,00;97,68
1796,00;97,66
1795,00;97,63
1794,00;97,62
1793,00;97,61
1792,00;97,59
1791,00;97,58
1790,00;97,60
1789,00;97,59
1788,00;97,56
1787,00;97,53
1786,00;97,51
1785,00;97,50
1784,00;97,46
1783,00;97,42
1782,00;97,41
1781,00;97,39
1780,00;97,35
1779,00;97,32
1778,00;97,30
1777,00;97,29
1776,00;97,26
1775,00;97,24
1774,00;97,26
1773,00;97,27
1772,00;97,25
1771,00;97,21
1770,00;97,20
1769,00;97,19
1768,00;97,17
1767,00;97,18
1766,00;97,20
1765,00;97,20
1764,00;97,18
1763,00;97,16
1762,00;97,18
1761,00;97,20
1760,00;97,19
1759,00;97,19
1758,00;97,20
1757,00;97,20
1756,00;97,18
1755,00;97,16
1754,00;97,17
1753,00;97,17
1752,00;97,15
1751,00;97,12
1750,00;97,12
1749,00;97,10
1748,00;97,03
1747,00;96,98
1746,00;96,95
1745,00;96,92
1744,00;96,86
1743,00;96,80
1742,00;96,77
1741,00;96,71
1740,00;96,60
1739,00;96,48
1738,00;96,40
1737,00;96,31
1736,00;96,15
1735,00;95,93
1734,00;95,70
1733,00;95,49
1732,00;95,29
1731,00;95,12
1730,00;94,97
1729,00;94,78
1728,00;94,55
1727,00;94,33
1726,00;94,12
1725,00;93,86
1724,00;93,52
1723,00;93,14
1722,00;92,82
1721,00;92,51
1720,00;92,13
1719,00;91,59
1718,00;90,81
1717,00;89,73
1716,00;88,52
1715,00;87,32
1714,00;86,15
1713,00;84,94
1712,00;83,62
1711,00;82,16
1710,00;80,58
1709,00;78,97
1708,00;77,33
1707,00;75,57
1706,00;73,56
1705,00;71,59
1704,00;70,10
1703,00;69,07
1702,00;68,17
1701,00;67,05
1700,00;65,76
1699,00;64,84
1698,00;64,45
1697,00;64,44
1696,00;64,69
1695,00;65,10
1694,00;65,62
1693,00;66,30
1692,00;67,17
1691,00;68,21
1690,00;69,40
1689,00;70,66
1688,00;71,81
1687,00;72,74
1686,00;73,50
1685,00;74,42
1684,00;75,56
1683,00;76,40
1682,00;76,82
1681,00;77,13
1680,00;77,40
1679,00;77,60
1678,00;77,71
1677,00;77,78
1676,00;77,81
1675,00;77,77
1674,00;77,71
1673,00;77,69
1672,00;77,68
1671,00;77,57
1670,00;77,35
1669,00;77,10
1668,00;76,91
1667,00;76,77
1666,00;76,66
1665,00;76,54
1664,00;76,38
1663,00;76,12
1662,00;75,83
1661,00;75,62
1660,00;75,46
1659,00;75,32
1658,00;75,18
1657,00;75,09
1656,00;75,04
1655,00;74,97
1654,00;74,72
1653,00;74,28
1652,00;74,00
1651,00;73,94
1650,00;73,95
1649,00;73,98
1648,00;73,95
1647,00;73,77
1646,00;73,59
1645,00;73,53
1644,00;73,54
1643,00;73,56
1642,00;73,58
1641,00;73,62
1640,00;73,69
1639,00;73,75
1638,00;73,82
1637,00;73,92
1636,00;74,02
1635,00;74,13
1634,00;74,31
1633,00;74,54
1632,00;74,78
1631,00;75,00
1630,00;75,24
1629,00;75,52
1628,00;75,82
1627,00;76,11
1626,00;76,39
1625,00;76,71
1624,00;77,09
1623,00;77,51
1622,00;77,92
1621,00;78,30
1620,00;78,63
1619,00;78,95
1618,00;79,31
1617,00;79,78
1616,00;80,28
1615,00;80,69
1614,00;81,02
1613,00;81,35
1612,00;81,69
1611,00;82,04
1610,00;82,39
1609,00;82,75
1608,00;83,11
1607,00;83,46
1606,00;83,76
1605,00;84,06
1604,00;84,37
1603,00;84,67
1602,00;84,95
1601,00;85,23
1600,00;85,50
1599,00;85,74
1598,00;85,95
1597,00;86,17
1596,00;86,39
1595,00;86,60
1594,00;86,80
1593,00;87,00
1592,00;87,20
1591,00;87,38
1590,00;87,54
1589,00;87,70
1588,00;87,87
1587,00;88,04
1586,00;88,20
1585,00;88,36
1584,00;88,53
1583,00;88,68
1582,00;88,82
1581,00;88,96
1580,00;89,11
1579,00;89,26
1578,00;89,39
1577,00;89,54
1576,00;89,71
1575,00;89,85
1574,00;89,95
1573,00;90,03
1572,00;90,12
1571,00;90,21
1570,00;90,31
1569,00;90,42
1568,00;90,52
1567,00;90,61
1566,00;90,68
1565,00;90,76
1564,00;90,86
1563,00;90,94
1562,00;90,98
1561,00;91,04
1560,00;91,17
1559,00;91,29
1558,00;91,29
1557,00;91,28
1556,00;91,33
1555,00;91,39
1554,00;91,44
1553,00;91,49
1552,00;91,55
1551,00;91,60
1550,00;91,64
1549,00;91,68
1548,00;91,72
1547,00;91,75
1546,00;91,76
1545,00;91,77
1544,00;91,79
1543,00;91,81
1542,00;91,83
1541,00;91,89
1540,00;92,02
1539,00;92,10
1538,00;92,11
1537,00;92,10
1536,00;92,10
1535,00;92,11
1534,00;92,12
1533,00;92,13
1532,00;92,17
1531,00;92,21
1530,00;92,24
1529,00;92,28
1528,00;92,32
1527,00;92,35
1526,00;92,36
1525,00;92,36
1524,00;92,39
1523,00;92,42
1522,00;92,43
1521,00;92,45
1520,00;92,49
1519,00;92,52
1518,00;92,53
1517,00;92,53
1516,00;92,54
1515,00;92,55
1514,00;92,55
1513,00;92,55
1512,00;92,56
1511,00;92,57
1510,00;92,58
1509,00;92,58
1508,00;92,58
1507,00;92,58
1506,00;92,59
1505,00;92,60
1504,00;92,63
1503,00;92,64
1502,00;92,65
1501,00;92,66
1500,00;92,68
1499,00;92,71
1498,00;92,72
1497,00;92,72
1496,00;92,72
1495,00;92,72
1494,00;92,70
1493,00;92,69
1492,00;92,69
1491,00;92,69
1490,00;92,67
1489,00;92,65
1488,00;92,65
1487,00;92,66
1486,00;92,66
1485,00;92,66
1484,00;92,67
1483,00;92,67
1482,00;92,66
1481,00;92,64
1480,00;92,63
1479,00;92,62
1478,00;92,60
1477,00;92,58
1476,00;92,57
1475,00;92,56
1474,00;92,54
1473,00;92,49
1472,00;92,45
1471,00;92,42
1470,00;92,40
1469,00;92,39
1468,00;92,37
1467,00;92,35
1466,00;92,31
1465,00;92,28
1464,00;92,25
1463,00;92,23
1462,00;92,20
1461,00;92,15
1460,00;92,10
1459,00;92,04
1458,00;91,94
1457,00;91,81
1456,00;91,73
1455,00;91,69
1454,00;91,64
1453,00;91,56
1452,00;91,48
1451,00;91,40
1450,00;91,31
1449,00;91,20
1448,00;91,08
1447,00;90,94
1446,00;90,82
1445,00;90,70
1444,00;90,59
1443,00;90,47
1442,00;90,34
1441,00;90,21
1440,00;90,09
1439,00;89,97
1438,00;89,83
1437,00;89,63
1436,00;89,43
1435,00;89,28
1434,00;89,16
1433,00;89,03
1432,00;88,88
1431,00;88,69
1430,00;88,46
1429,00;88,23
1428,00;88,03
1427,00;87,88
1426,00;87,77
1425,00;87,66
1424,00;87,57
1423,00;87,52
1422,00;87,51
1421,00;87,54
1420,00;87,64
1419,00;87,83
1418,00;88,06
1417,00;88,28
1416,00;88,50
1415,00;88,72
1414,00;88,94
1413,00;89,14
1412,00;89,33
1411,00;89,53
1410,00;89,70
1409,00;89,86
1408,00;90,00
1407,00;90,12
1406,00;90,22
1405,00;90,32
1404,00;90,43
1403,00;90,52
1402,00;90,58
1401,00;90,62
1400,00;90,65
1399,00;90,67
1398,00;90,67
1397,00;90,65
1396,00;90,62
1395,00;90,58
1394,00;90,51
1393,00;90,45
1392,00;90,39
1391,00;90,31
1390,00;90,18
1389,00;90,01
1388,00;89,79
1387,00;89,51
1386,00;89,21
1385,00;88,89
1384,00;88,54
1383,00;88,11
1382,00;87,57
1381,00;86,93
1380,00;86,19
1379,00;85,34
1378,00;84,44
1377,00;83,51
1376,00;82,54
1375,00;81,45
1374,00;80,34
1373,00;79,40
1372,00;78,76
1371,00;78,37
1370,00;78,18
1369,00;78,17
1368,00;78,32
1367,00;78,57
1366,00;78,85
1365,00;79,12
1364,00;79,36
1363,00;79,62
1362,00;79,95
1361,00;80,39
1360,00;80,96
1359,00;81,64
1358,00;82,44
1357,00;83,33
1356,00;84,27
1355,00;85,20
1354,00;86,07
1353,00;86,82
1352,00;87,46
1351,00;88,00
1350,00;88,47
1349,00;88,87
1348,00;89,22
1347,00;89,51
1346,00;89,76
1345,00;89,96
1344,00;90,15
1343,00;90,32
1342,00;90,46
1341,00;90,58
1340,00;90,69
1339,00;90,81
1338,00;90,93
1337,00;91,05
1336,00;91,17
1335,00;91,28
1334,00;91,37
1333,00;91,45
1332,00;91,52
1331,00;91,59
1330,00;91,65
1329,00;91,72
1328,00;91,80
1327,00;91,87
1326,00;91,93
1325,00;91,99
1324,00;92,04
1323,00;92,08
1322,00;92,11
1321,00;92,13
1320,00;92,17
1319,00;92,21
1318,00;92,24
1317,00;92,28
1316,00;92,31
1315,00;92,34
1314,00;92,37
1313,00;92,39
1312,00;92,42
1311,00;92,44
1310,00;92,45
1309,00;92,46
1308,00;92,49
1307,00;92,52
1306,00;92,55
1305,00;92,57
1304,00;92,60
1303,00;92,61
1302,00;92,63
1301,00;92,63
1300,00;92,62
1299,00;92,62
1298,00;92,61
1297,00;92,61
1296,00;92,63
1295,00;92,65
1294,00;92,67
1293,00;92,68
1292,00;92,68
1291,00;92,69
1290,00;92,70
1289,00;92,70
1288,00;92,71
1287,00;92,72
1286,00;92,72
1285,00;92,71
1284,00;92,70
1283,00;92,70
1282,00;92,71
1281,00;92,72
1280,00;92,72
1279,00;92,72
1278,00;92,72
1277,00;92,72
1276,00;92,72
1275,00;92,73
1274,00;92,73
1273,00;92,72
1272,00;92,70
1271,00;92,68
1270,00;92,66
1269,00;92,64
1268,00;92,63
1267,00;92,61
1266,00;92,58
1265,00;92,55
1264,00;92,52
1263,00;92,49
1262,00;92,46
1261,00;92,41
1260,00;92,35
1259,00;92,29
1258,00;92,23
1257,00;92,15
1256,00;92,04
1255,00;91,91
1254,00;91,75
1253,00;91,57
1252,00;91,35
1251,00;91,06
1250,00;90,68
1249,00;90,19
1248,00;89,56
1247,00;88,78
1246,00;87,81
1245,00;86,66
1244,00;85,33
1243,00;83,88
1242,00;82,38
1241,00;80,92
1240,00;79,61
1239,00;78,54
1238,00;77,79
1237,00;77,38
1236,00;77,35
1235,00;77,71
1234,00;78,42
1233,00;79,41
1232,00;80,59
1231,00;81,90
1230,00;83,24
1229,00;84,54
1228,00;85,72
1227,00;86,77
1226,00;87,66
1225,00;88,40
1224,00;89,01
1223,00;89,53
1222,00;90,00
1221,00;90,44
1220,00;90,87
1219,00;91,26
1218,00;91,58
1217,00;91,79
1216,00;91,91
1215,00;91,96
1214,00;91,99
1213,00;92,02
1212,00;92,07
1211,00;92,15
1210,00;92,24
1209,00;92,35
1208,00;92,45
1207,00;92,53
1206,00;92,59
1205,00;92,64
1204,00;92,68
1203,00;92,72
1202,00;92,73
1201,00;92,74
1200,00;92,75
1199,00;92,75
1198,00;92,75
1197,00;92,73
1196,00;92,71
1195,00;92,70
1194,00;92,68
1193,00;92,66
1192,00;92,64
1191,00;92,62
1190,00;92,60
1189,00;92,59
1188,00;92,60
1187,00;92,61
1186,00;92,61
1185,00;92,61
1184,00;92,61
1183,00;92,60
1182,00;92,59
1181,00;92,58
1180,00;92,58
1179,00;92,60
1178,00;92,61
1177,00;92,62
1176,00;92,63
1175,00;92,64
1174,00;92,64
1173,00;92,64
1172,00;92,63
1171,00;92,63
1170,00;92,62
1169,00;92,62
1168,00;92,62
1167,00;92,62
1166,00;92,61
1165,00;92,61
1164,00;92,62
1163,00;92,63
1162,00;92,63
1161,00;92,63
1160,00;92,64
1159,00;92,64
1158,00;92,65
1157,00;92,65
1156,00;92,67
1155,00;92,68
1154,00;92,68
1153,00;92,68
1152,00;92,68
1151,00;92,69
1150,00;92,70
1149,00;92,70
1148,00;92,71
1147,00;92,72
1146,00;92,72
1145,00;92,71
1144,00;92,72
1143,00;92,72
1142,00;92,72
1141,00;92,71
1140,00;92,72
1139,00;92,73
1138,00;92,74
1137,00;92,73
1136,00;92,71
1135,00;92,69
1134,00;92,66
1133,00;92,64
1132,00;92,63
1131,00;92,63
1130,00;92,63
1129,00;92,62
1128,00;92,62
1127,00;92,63
1126,00;92,64
1125,00;92,65
1124,00;92,67
1123,00;92,68
1122,00;92,67
1121,00;92,65
1120,00;92,64
1119,00;92,62
1118,00;92,61
1117,00;92,58
1116,00;92,55
1115,00;92,50
1114,00;92,46
1113,00;92,42
1112,00;92,39
1111,00;92,36
1110,00;92,31
1109,00;92,25
1108,00;92,18
1107,00;92,12
1106,00;92,06
1105,00;91,97
1104,00;91,86
1103,00;91,73
1102,00;91,57
1101,00;91,38
1100,00;91,15
1099,00;90,88
1098,00;90,58
1097,00;90,29
1096,00;90,04
1095,00;89,85
1094,00;89,76
1093,00;89,77
1092,00;89,90
1091,00;90,12
1090,00;90,38
1089,00;90,64
1088,00;90,88
1087,00;91,10
1086,00;91,28
1085,00;91,43
1084,00;91,55
1083,00;91,65
1082,00;91,74
1081,00;91,81
1080,00;91,86
1079,00;91,89
1078,00;91,90
1077,00;91,92
1076,00;91,94
1075,00;91,95
1074,00;91,93
1073,00;91,90
1072,00;91,88
1071,00;91,88
1070,00;91,90
1069,00;91,93
1068,00;91,97
1067,00;92,02
1066,00;92,08
1065,00;92,13
1064,00;92,17
1063,00;92,19
1062,00;92,19
1061,00;92,19
1060,00;92,21
1059,00;92,21
1058,00;92,20
1057,00;92,19
1056,00;92,18
1055,00;92,18
1054,00;92,18
1053,00;92,17
1052,00;92,17
1051,00;92,20
1050,00;92,23
1049,00;92,25
1048,00;92,23
1047,00;92,17
1046,00;92,11
1045,00;92,08
1044,00;92,08
1043,00;92,09
1042,00;92,08
1041,00;92,07
1040,00;92,05
1039,00;92,04
1038,00;92,04
1037,00;92,04
1036,00;92,04
1035,00;92,05
1034,00;92,05
1033,00;92,04
1032,00;92,04
1031,00;92,02
1030,00;92,01
1029,00;92,01
1028,00;92,02
1027,00;92,03
1026,00;92,03
1025,00;92,03
1024,00;92,03
1023,00;92,02
1022,00;92,01
1021,00;91,98
1020,00;91,94
1019,00;91,92
1018,00;91,88
1017,00;91,85
1016,00;91,82
1015,00;91,80
1014,00;91,79
1013,00;91,78
1012,00;91,78
1011,00;91,79
1010,00;91,80
1009,00;91,79
1008,00;91,78
1007,00;91,76
1006,00;91,73
1005,00;91,69
1004,00;91,65
1003,00;91,61
1002,00;91,56
1001,00;91,52
1000,00;91,50
999,00;91,50
998,00;91,50
997,00;91,50
996,00;91,48
995,00;91,45
994,00;91,41
993,00;91,38
992,00;91,34
991,00;91,31
990,00;91,28
989,00;91,26
988,00;91,24
987,00;91,21
986,00;91,17
985,00;91,12
984,00;91,08
983,00;91,05
982,00;91,03
981,00;91,01
980,00;90,99
979,00;90,95
978,00;90,91
977,00;90,86
976,00;90,82
975,00;90,80
974,00;90,79
973,00;90,77
972,00;90,76
971,00;90,72
970,00;90,67
969,00;90,61
968,00;90,56
967,00;90,52
966,00;90,48
965,00;90,43
964,00;90,38
963,00;90,34
962,00;90,29
961,00;90,24
960,00;90,19
959,00;90,13
958,00;90,08
957,00;90,04
956,00;90,00
955,00;89,96
954,00;89,91
953,00;89,84
952,00;89,77
951,00;89,70
950,00;89,63
949,00;89,56
948,00;89,50
947,00;89,46
946,00;89,42
945,00;89,39
944,00;89,34
943,00;89,26
942,00;89,18
941,00;89,09
940,00;89,00
939,00;88,91
938,00;88,82
937,00;88,73
936,00;88,64
935,00;88,57
934,00;88,50
933,00;88,44
932,00;88,36
931,00;88,28
930,00;88,18
929,00;88,08
928,00;87,98
927,00;87,88
926,00;87,79
925,00;87,70
924,00;87,61
923,00;87,50
922,00;87,37
921,00;87,23
920,00;87,09
919,00;86,99
918,00;86,91
917,00;86,83
916,00;86,73
915,00;86,62
914,00;86,50
913,00;86,39
912,00;86,31
911,00;86,23
910,00;86,14
909,00;86,04
908,00;85,94
907,00;85,85
906,00;85,77
905,00;85,70
904,00;85,62
903,00;85,53
902,00;85,43
901,00;85,33
900,00;85,23
899,00;85,13
898,00;85,04
897,00;84,95
896,00;84,85
895,00;84,74
894,00;84,63
893,00;84,51
892,00;84,40
891,00;84,30
890,00;84,19
889,00;84,06
888,00;83,91
887,00;83,77
886,00;83,64
885,00;83,50
884,00;83,36
883,00;83,22
882,00;83,08
881,00;82,96
880,00;82,85
879,00;82,73
878,00;82,60
877,00;82,46
876,00;82,32
875,00;82,17
874,00;82,03
873,00;81,87
872,00;81,71
871,00;81,55
870,00;81,40
869,00;81,24
868,00;81,08
867,00;80,93
866,00;80,78
865,00;80,62
864,00;80,44
863,00;80,25
862,00;80,07
861,00;79,89
860,00;79,72
859,00;79,55
858,00;79,41
857,00;79,28
856,00;79,15
855,00;79,00
854,00;78,82
853,00;78,62
852,00;78,44
851,00;78,27
850,00;78,12
849,00;77,96
848,00;77,77
847,00;77,60
846,00;77,42
845,00;77,23
844,00;77,02
843,00;76,83
842,00;76,65
841,00;76,48
840,00;76,31
839,00;76,14
838,00;75,97
837,00;75,79
836,00;75,61
835,00;75,43
834,00;75,25
833,00;75,06
832,00;74,86
831,00;74,68
830,00;74,51
829,00;74,31
828,00;74,07
827,00;73,83
826,00;73,63
825,00;73,45
824,00;73,28
823,00;73,10
822,00;72,93
821,00;72,75
820,00;72,57
819,00;72,41
818,00;72,27
817,00;72,12
816,00;71,93
815,00;71,71
814,00;71,50
813,00;71,29
812,00;71,09
811,00;70,91
810,00;70,74
809,00;70,57
808,00;70,37
807,00;70,15
806,00;69,93
805,00;69,70
804,00;69,48
803,00;69,29
802,00;69,13
801,00;68,99
800,00;68,82
799,00;68,64
798,00;68,44
797,00;68,20
796,00;67,96
795,00;67,75
794,00;67,57
793,00;67,40
792,00;67,23
791,00;67,07
790,00;66,91
789,00;66,72
788,00;66,51
787,00;66,31
786,00;66,12
785,00;65,94
784,00;65,74
783,00;65,54
782,00;65,34
781,00;65,14
780,00;64,94
779,00;64,76
778,00;64,60
777,00;64,42
776,00;64,22
775,00;64,04
774,00;63,88
773,00;63,72
772,00;63,54
771,00;63,34
770,00;63,15
769,00;62,95
768,00;62,74
767,00;62,54
766,00;62,35
765,00;62,17
764,00;61,98
763,00;61,82
762,00;61,67
761,00;61,49
760,00;61,26
759,00;61,04
758,00;60,87
757,00;60,72
756,00;60,58
755,00;60,44
754,00;60,29
753,00;60,11
752,00;59,89
751,00;59,69
750,00;59,52
749,00;59,34
748,00;59,15
747,00;58,97
746,00;58,81
745,00;58,64
744,00;58,47
743,00;58,30
742,00;58,14
741,00;57,97
740,00;57,77
739,00;57,58
738,00;57,41
737,00;57,24
736,00;57,07
735,00;56,92
734,00;56,79
733,00;56,65
732,00;56,48
731,00;56,29
730,00;56,10
729,00;55,91
728,00;55,71
727,00;55,53
726,00;55,39
725,00;55,25
724,00;55,09
723,00;54,93
722,00;54,77
721,00;54,59
720,00;54,38
719,00;54,19
718,00;54,03
717,00;53,89
716,00;53,72
715,00;53,57
714,00;53,44
713,00;53,29
712,00;53,11
711,00;52,95
710,00;52,81
709,00;52,67
708,00;52,53
707,00;52,40
706,00;52,29
705,00;52,14
704,00;51,97
703,00;51,81
702,00;51,70
701,00;51,59
700,00;51,44
699,00;51,27
698,00;51,11
697,00;50,94
696,00;50,75
695,00;50,58
694,00;50,44
693,00;50,33
692,00;50,21
691,00;50,11
690,00;49,99
689,00;49,82
688,00;49,63
687,00;49,53
686,00;49,51
685,00;49,47
684,00;49,35
683,00;49,20
682,00;49,07
681,00;48,92
680,00;48,74
679,00;48,58
678,00;48,47
677,00;48,34
676,00;48,19
675,00;48,08
674,00;48,03
673,00;47,97
672,00;47,85
671,00;47,73
670,00;47,61
669,00;47,40
668,00;47,09
667,00;46,93
666,00;46,93
665,00;46,89
664,00;46,76
663,00;46,59
662,00;46,48
661,00;46,40
660,00;46,31
659,00;46,26
658,00;46,25
657,00;46,21
656,00;46,08
655,00;45,93
654,00;45,81
653,00;45,69
652,00;45,54
651,00;45,42
650,00;45,36
649,00;45,25
648,00;45,09
647,00;45,02
646,00;45,09
645,00;45,16
644,00;45,14
643,00;45,09
642,00;45,06
641,00;44,96
640,00;44,75
639,00;44,59
638,00;44,51
637,00;44,36
636,00;44,07
635,00;43,87
634,00;43,94
633,00;44,10
632,00;44,13
631,00;44,09
630,00;44,02
629,00;43,87
628,00;43,64
627,00;43,51
626,00;43,53
625,00;43,45
624,00;43,18
623,00;43,01
622,00;43,15
621,00;43,33
620,00;43,36
619,00;43,36
618,00;43,41
617,00;43,23
616,00;42,84
615,00;42,71
614,00;42,95
613,00;43,00
612,00;42,59
611,00;42,15
610,00;42,00
609,00;41,84
608,00;41,46
607,00;41,29
606,00;41,59
605,00;42,03
604,00;42,21
603,00;42,26
602,00;42,36
601,00;42,35
600,00;42,14
